unix_ms,lsl_unix_ts,PPG1,PPG2,PPG3
1767829402993,1767829402.9919064,548.0,118146.0,57609.0
1767829402993,1767829402.991922,549.0,118209.0,57635.0
1767829402993,1767829402.9919376,549.0,118033.0,57574.0
1767829402993,1767829402.9919531,550.0,118160.0,57580.0
1767829402993,1767829402.9919689,551.0,118118.0,57582.0
1767829402993,1767829402.9919844,551.0,118098.0,57567.0
1767829403099,1767829403.0819063,550.0,118120.0,57587.0
1767829403099,1767829403.0819218,551.0,118146.0,57608.0
1767829403099,1767829403.0819376,550.0,118080.0,57573.0
1767829403099,1767829403.081953,548.0,118106.0,57603.0
1767829403099,1767829403.0819688,550.0,118002.0,57596.0
1767829403099,1767829403.0819843,550.0,118243.0,57631.0
1767829403188,1767829403.1869063,549.0,118147.0,57655.0
1767829403188,1767829403.1869218,550.0,118288.0,57659.0
1767829403188,1767829403.1869376,548.0,118256.0,57616.0
1767829403188,1767829403.186953,546.0,118274.0,57659.0
1767829403188,1767829403.1869688,545.0,118309.0,57692.0
1767829403188,1767829403.1869843,544.0,118303.0,57655.0
1767829403278,1767829403.2769063,544.0,118326.0,57673.0
1767829403278,1767829403.2769217,545.0,118364.0,57668.0
1767829403278,1767829403.2769375,543.0,118367.0,57703.0
1767829403278,1767829403.276953,542.0,118316.0,57695.0
1767829403278,1767829403.2769687,540.0,118295.0,57699.0
1767829403278,1767829403.2769842,540.0,118329.0,57676.0
1767829403369,1767829403.3669064,541.0,118364.0,57694.0
1767829403369,1767829403.366922,539.0,118273.0,57688.0
1767829403369,1767829403.3669376,539.0,118388.0,57724.0
1767829403369,1767829403.3669531,540.0,118392.0,57706.0
1767829403369,1767829403.3669689,540.0,118381.0,57720.0
1767829403369,1767829403.3669844,539.0,118395.0,57708.0
1767829403473,1767829403.4579062,538.0,118413.0,57695.0
1767829403473,1767829403.4579217,538.0,118310.0,57726.0
1767829403473,1767829403.4579375,536.0,118398.0,57684.0
1767829403473,1767829403.457953,537.0,118341.0,57672.0
1767829403473,1767829403.4579687,540.0,118353.0,57679.0
1767829403473,1767829403.4579842,538.0,118340.0,57687.0
1767829403568,1767829403.5619063,537.0,118297.0,57685.0
1767829403568,1767829403.5619218,538.0,118261.0,57626.0
1767829403568,1767829403.5619376,538.0,118223.0,57635.0
1767829403568,1767829403.561953,538.0,118223.0,57627.0
1767829403568,1767829403.5619688,538.0,118058.0,57616.0
1767829403568,1767829403.5619843,537.0,118146.0,57620.0
1767829403658,1767829403.6519063,538.0,118167.0,57561.0
1767829403658,1767829403.6519217,539.0,118128.0,57597.0
1767829403658,1767829403.6519375,540.0,118145.0,57579.0
1767829403658,1767829403.651953,540.0,118091.0,57586.0
1767829403658,1767829403.6519687,541.0,118086.0,57586.0
1767829403658,1767829403.6519842,541.0,118097.0,57593.0
1767829403751,1767829403.7429063,541.0,118022.0,57597.0
1767829403751,1767829403.7429218,541.0,118064.0,57568.0
1767829403751,1767829403.7429376,541.0,118152.0,57604.0
1767829403751,1767829403.742953,543.0,118081.0,57593.0
1767829403751,1767829403.7429688,543.0,118108.0,57625.0
1767829403751,1767829403.7429843,543.0,118133.0,57608.0
1767829403848,1767829403.8319063,543.0,118076.0,57569.0
1767829403848,1767829403.8319218,543.0,118156.0,57603.0
1767829403848,1767829403.8319376,544.0,118193.0,57606.0
1767829403848,1767829403.831953,543.0,118159.0,57623.0
1767829403848,1767829403.8319688,544.0,118238.0,57616.0
1767829403848,1767829403.8319843,543.0,118123.0,57638.0
1767829403941,1767829403.9369063,543.0,118217.0,57657.0
1767829403941,1767829403.9369218,543.0,118271.0,57638.0
1767829403941,1767829403.9369376,544.0,118234.0,57630.0
1767829403941,1767829403.936953,542.0,118278.0,57651.0
1767829403941,1767829403.9369688,544.0,118305.0,57669.0
1767829403941,1767829403.9369843,543.0,118291.0,57684.0
1767829404030,1767829404.0279064,544.0,118152.0,57657.0
1767829404030,1767829404.027922,544.0,118387.0,57635.0
1767829404030,1767829404.0279377,543.0,118267.0,57680.0
1767829404030,1767829404.0279531,543.0,118285.0,57649.0
1767829404030,1767829404.027969,544.0,118264.0,57661.0
1767829404030,1767829404.0279844,545.0,118260.0,57659.0
1767829404124,1767829404.1169064,544.0,118157.0,57621.0
1767829404124,1767829404.116922,544.0,118127.0,57626.0
1767829404124,1767829404.1169376,545.0,118196.0,57602.0
1767829404124,1767829404.1169531,547.0,118188.0,57589.0
1767829404124,1767829404.1169689,546.0,118121.0,57569.0
1767829404124,1767829404.1169844,547.0,118133.0,57604.0
1767829404241,1767829404.2069063,546.0,118005.0,57558.0
1767829404241,1767829404.2069218,550.0,118155.0,57583.0
1767829404241,1767829404.2069376,549.0,118021.0,57569.0
1767829404241,1767829404.206953,549.0,118047.0,57566.0
1767829404241,1767829404.2069688,550.0,117924.0,57549.0
1767829404241,1767829404.2069843,552.0,118071.0,57581.0
1767829404318,1767829404.3119063,552.0,118038.0,57572.0
1767829404318,1767829404.3119218,553.0,118094.0,57582.0
1767829404318,1767829404.3119376,553.0,118156.0,57575.0
1767829404318,1767829404.311953,553.0,118148.0,57568.0
1767829404318,1767829404.3119688,554.0,118118.0,57587.0
1767829404318,1767829404.3119843,553.0,118121.0,57578.0
1767829404410,1767829404.4019063,552.0,117949.0,57577.0
1767829404410,1767829404.4019217,553.0,118106.0,57606.0
1767829404410,1767829404.4019375,553.0,118121.0,57583.0
1767829404410,1767829404.401953,554.0,118157.0,57578.0
1767829404410,1767829404.4019687,555.0,118201.0,57582.0
1767829404410,1767829404.4019842,553.0,118176.0,57611.0
1767829404497,1767829404.4909062,554.0,118149.0,57581.0
1767829404497,1767829404.4909217,554.0,118278.0,57608.0
1767829404497,1767829404.4909375,553.0,118173.0,57607.0
1767829404497,1767829404.490953,555.0,118072.0,57602.0
1767829404497,1767829404.4909687,555.0,118268.0,57641.0
1767829404497,1767829404.4909842,554.0,118272.0,57617.0
1767829404599,1767829404.5819063,555.0,118151.0,57634.0
1767829404599,1767829404.5819218,556.0,118323.0,57624.0
1767829404599,1767829404.5819376,553.0,118237.0,57621.0
1767829404599,1767829404.581953,553.0,118209.0,57607.0
1767829404599,1767829404.5819688,554.0,118156.0,57620.0
1767829404599,1767829404.5819843,556.0,118293.0,57643.0
1767829404715,1767829404.7019062,554.0,118357.0,57629.0
1767829404715,1767829404.7019217,554.0,118302.0,57634.0
1767829404715,1767829404.7019374,555.0,118257.0,57628.0
1767829404715,1767829404.701953,555.0,118332.0,57586.0
1767829404715,1767829404.7019687,553.0,118228.0,57631.0
1767829404715,1767829404.7019842,553.0,118216.0,57607.0
1767829404780,1767829404.7759063,553.0,118140.0,57575.0
1767829404780,1767829404.7759218,553.0,118145.0,57558.0
1767829404780,1767829404.7759376,554.0,118165.0,57564.0
1767829404780,1767829404.775953,554.0,118227.0,57567.0
1767829404780,1767829404.7759688,552.0,118196.0,57599.0
1767829404780,1767829404.7759843,553.0,118104.0,57559.0
1767829404871,1767829404.8669064,556.0,118220.0,57562.0
1767829404871,1767829404.866922,553.0,118153.0,57562.0
1767829404871,1767829404.8669376,554.0,118180.0,57578.0
1767829404871,1767829404.8669531,553.0,118179.0,57575.0
1767829404871,1767829404.8669689,555.0,118226.0,57595.0
1767829404871,1767829404.8669844,555.0,118172.0,57586.0
1767829404975,1767829404.9569063,555.0,118185.0,57604.0
1767829404975,1767829404.9569218,555.0,118206.0,57581.0
1767829404975,1767829404.9569376,554.0,118178.0,57599.0
1767829404975,1767829404.956953,555.0,118208.0,57565.0
1767829404975,1767829404.9569688,556.0,118302.0,57615.0
1767829404975,1767829404.9569843,556.0,118103.0,57594.0
1767829405065,1767829405.0609064,556.0,118280.0,57601.0
1767829405065,1767829405.060922,556.0,118152.0,57594.0
1767829405065,1767829405.0609376,555.0,118199.0,57597.0
1767829405065,1767829405.0609531,554.0,118179.0,57585.0
1767829405065,1767829405.0609689,553.0,118280.0,57603.0
1767829405065,1767829405.0609844,553.0,118187.0,57597.0
1767829405154,1767829405.1519063,555.0,118158.0,57591.0
1767829405154,1767829405.1519217,554.0,118293.0,57618.0
1767829405154,1767829405.1519375,554.0,118209.0,57615.0
1767829405154,1767829405.151953,555.0,118333.0,57634.0
1767829405154,1767829405.1519687,555.0,118249.0,57625.0
1767829405154,1767829405.1519842,553.0,118218.0,57616.0
1767829405249,1767829405.2409062,552.0,118178.0,57629.0
1767829405249,1767829405.2409217,553.0,118259.0,57618.0
1767829405249,1767829405.2409375,555.0,118297.0,57635.0
1767829405249,1767829405.240953,555.0,118298.0,57627.0
1767829405249,1767829405.2409687,557.0,118267.0,57636.0
1767829405249,1767829405.2409842,554.0,118336.0,57634.0
1767829405347,1767829405.3329062,554.0,118221.0,57622.0
1767829405347,1767829405.3329217,555.0,118314.0,57632.0
1767829405347,1767829405.3329375,555.0,118288.0,57634.0
1767829405347,1767829405.332953,556.0,118320.0,57578.0
1767829405347,1767829405.3329687,555.0,118272.0,57591.0
1767829405347,1767829405.3329842,555.0,118231.0,57604.0
1767829405439,1767829405.4369063,555.0,118183.0,57593.0
1767829405439,1767829405.4369218,554.0,118190.0,57582.0
1767829405439,1767829405.4369376,557.0,118264.0,57588.0
1767829405439,1767829405.436953,553.0,118263.0,57572.0
1767829405439,1767829405.4369688,555.0,118287.0,57613.0
1767829405439,1767829405.4369843,557.0,118201.0,57592.0
1767829405533,1767829405.5269063,556.0,118205.0,57600.0
1767829405533,1767829405.5269217,557.0,118286.0,57576.0
1767829405533,1767829405.5269375,555.0,118180.0,57571.0
1767829405533,1767829405.526953,555.0,118210.0,57614.0
1767829405533,1767829405.5269687,555.0,118102.0,57597.0
1767829405533,1767829405.5269842,556.0,118244.0,57592.0
1767829405618,1767829405.6169064,555.0,118147.0,57589.0
1767829405618,1767829405.616922,556.0,118108.0,57587.0
1767829405618,1767829405.6169376,557.0,118234.0,57600.0
1767829405618,1767829405.6169531,556.0,118244.0,57612.0
1767829405618,1767829405.6169689,557.0,118257.0,57595.0
1767829405618,1767829405.6169844,555.0,118197.0,57592.0
1767829405727,1767829405.7069063,556.0,118157.0,57584.0
1767829405727,1767829405.7069218,555.0,118257.0,57586.0
1767829405727,1767829405.7069376,556.0,118309.0,57612.0
1767829405727,1767829405.706953,557.0,118147.0,57603.0
1767829405727,1767829405.7069688,555.0,118316.0,57622.0
1767829405727,1767829405.7069843,556.0,118305.0,57622.0
1767829405812,1767829405.8009064,556.0,118284.0,57607.0
1767829405812,1767829405.800922,556.0,118294.0,57634.0
1767829405812,1767829405.8009377,556.0,118273.0,57602.0
1767829405812,1767829405.8009531,556.0,118278.0,57623.0
1767829405812,1767829405.800969,555.0,118231.0,57634.0
1767829405812,1767829405.8009844,558.0,118337.0,57619.0
1767829405903,1767829405.9019063,555.0,118246.0,57635.0
1767829405903,1767829405.9019217,558.0,118310.0,57617.0
1767829405903,1767829405.9019375,556.0,118236.0,57631.0
1767829405903,1767829405.901953,559.0,118334.0,57654.0
1767829405903,1767829405.9019687,558.0,118318.0,57625.0
1767829405903,1767829405.9019842,559.0,118311.0,57624.0
1767829405997,1767829405.9919064,559.0,118439.0,57623.0
1767829405997,1767829405.991922,558.0,118297.0,57623.0
1767829405997,1767829405.9919376,557.0,118262.0,57617.0
1767829405997,1767829405.9919531,559.0,118313.0,57640.0
1767829405997,1767829405.9919689,559.0,118342.0,57611.0
1767829405997,1767829405.9919844,558.0,118305.0,57589.0
1767829406100,1767829406.0819063,559.0,118345.0,57622.0
1767829406100,1767829406.0819218,558.0,118259.0,57594.0
1767829406100,1767829406.0819376,559.0,118337.0,57590.0
1767829406100,1767829406.081953,560.0,118344.0,57603.0
1767829406100,1767829406.0819688,558.0,118336.0,57619.0
1767829406100,1767829406.0819843,557.0,118217.0,57564.0
1767829406190,1767829406.1869063,558.0,118349.0,57586.0
1767829406190,1767829406.1869218,557.0,118245.0,57634.0
1767829406190,1767829406.1869376,557.0,118307.0,57608.0
1767829406190,1767829406.186953,557.0,118257.0,57573.0
1767829406190,1767829406.1869688,558.0,118343.0,57610.0
1767829406190,1767829406.1869843,557.0,118304.0,57642.0
1767829406279,1767829406.2769063,558.0,118306.0,57577.0
1767829406279,1767829406.2769217,558.0,118373.0,57658.0
1767829406279,1767829406.2769375,559.0,118329.0,57587.0
1767829406279,1767829406.276953,560.0,118351.0,57602.0
1767829406279,1767829406.2769687,560.0,118364.0,57614.0
1767829406279,1767829406.2769842,558.0,118325.0,57621.0
1767829406371,1767829406.3679063,556.0,118280.0,57593.0
1767829406371,1767829406.3679218,559.0,118272.0,57594.0
1767829406371,1767829406.3679376,558.0,118265.0,57621.0
1767829406371,1767829406.367953,559.0,118355.0,57618.0
1767829406371,1767829406.3679688,559.0,118366.0,57628.0
1767829406371,1767829406.3679843,559.0,118401.0,57625.0
1767829406477,1767829406.4569063,558.0,118342.0,57606.0
1767829406477,1767829406.4569218,558.0,118312.0,57629.0
1767829406480,1767829406.4569376,558.0,118340.0,57631.0
1767829406480,1767829406.456953,557.0,118423.0,57665.0
1767829406480,1767829406.4569688,557.0,118325.0,57626.0
1767829406485,1767829406.4569843,557.0,118308.0,57639.0
1767829406570,1767829406.5619063,557.0,118337.0,57639.0
1767829406570,1767829406.5619218,559.0,118319.0,57624.0
1767829406570,1767829406.5619376,558.0,118322.0,57637.0
1767829406570,1767829406.561953,558.0,118353.0,57643.0
1767829406570,1767829406.5619688,557.0,118330.0,57638.0
1767829406570,1767829406.5619843,557.0,118376.0,57627.0
1767829406655,1767829406.6529064,557.0,118454.0,57609.0
1767829406655,1767829406.652922,558.0,118356.0,57621.0
1767829406655,1767829406.6529377,558.0,118348.0,57618.0
1767829406655,1767829406.6529531,557.0,118315.0,57608.0
1767829406655,1767829406.652969,560.0,118404.0,57598.0
1767829406655,1767829406.6529844,557.0,118257.0,57606.0
1767829406747,1767829406.7419064,560.0,118357.0,57581.0
1767829406747,1767829406.741922,558.0,118296.0,57597.0
1767829406747,1767829406.7419376,558.0,118375.0,57583.0
1767829406747,1767829406.7419531,559.0,118328.0,57571.0
1767829406747,1767829406.7419689,558.0,118218.0,57612.0
1767829406747,1767829406.7419844,559.0,118268.0,57601.0
1767829406848,1767829406.8319063,558.0,118305.0,57641.0
1767829406848,1767829406.8319218,559.0,118264.0,57582.0
1767829406848,1767829406.8319376,558.0,118297.0,57606.0
1767829406848,1767829406.831953,557.0,118264.0,57577.0
1767829406848,1767829406.8319688,558.0,118239.0,57576.0
1767829406848,1767829406.8319843,559.0,118390.0,57599.0
1767829406942,1767829406.9379063,558.0,118346.0,57613.0
1767829406942,1767829406.9379218,558.0,118302.0,57567.0
1767829406942,1767829406.9379375,558.0,118351.0,57586.0
1767829406942,1767829406.937953,558.0,118336.0,57617.0
1767829406942,1767829406.9379687,558.0,118305.0,57608.0
1767829406942,1767829406.9379842,555.0,118305.0,57591.0
1767829407029,1767829407.0269063,557.0,118199.0,57569.0
1767829407029,1767829407.0269217,559.0,118396.0,57608.0
1767829407029,1767829407.0269375,559.0,118327.0,57592.0
1767829407029,1767829407.026953,558.0,118260.0,57597.0
1767829407029,1767829407.0269687,559.0,118366.0,57580.0
1767829407029,1767829407.0269842,558.0,118305.0,57598.0
1767829407132,1767829407.1179063,560.0,118405.0,57577.0
1767829407132,1767829407.1179218,560.0,118366.0,57573.0
1767829407132,1767829407.1179376,557.0,118357.0,57600.0
1767829407132,1767829407.117953,559.0,118383.0,57596.0
1767829407132,1767829407.1179688,560.0,118386.0,57636.0
1767829407132,1767829407.1179843,560.0,118357.0,57612.0
1767829407225,1767829407.2219062,559.0,118403.0,57618.0
1767829407225,1767829407.2219217,558.0,118407.0,57603.0
1767829407226,1767829407.2219374,559.0,118453.0,57609.0
1767829407226,1767829407.221953,558.0,118353.0,57613.0
1767829407226,1767829407.2219687,561.0,118419.0,57609.0
1767829407226,1767829407.2219841,558.0,118321.0,57579.0
1767829407317,1767829407.3119063,559.0,118408.0,57614.0
1767829407317,1767829407.3119218,558.0,118381.0,57582.0
1767829407317,1767829407.3119376,559.0,118358.0,57577.0
1767829407317,1767829407.311953,560.0,118421.0,57586.0
1767829407317,1767829407.3119688,558.0,118249.0,57584.0
1767829407317,1767829407.3119843,558.0,118315.0,57579.0
1767829407406,1767829407.4019063,558.0,118368.0,57595.0
1767829407406,1767829407.4019217,559.0,118229.0,57553.0
1767829407406,1767829407.4019375,558.0,118343.0,57562.0
1767829407406,1767829407.401953,559.0,118311.0,57553.0
1767829407406,1767829407.4019687,557.0,118235.0,57568.0
1767829407406,1767829407.4019842,559.0,118155.0,57540.0
1767829407497,1767829407.4919064,559.0,118219.0,57559.0
1767829407497,1767829407.491922,559.0,118381.0,57591.0
1767829407497,1767829407.4919376,558.0,118276.0,57539.0
1767829407497,1767829407.4919531,558.0,118213.0,57558.0
1767829407497,1767829407.4919689,558.0,118268.0,57561.0
1767829407497,1767829407.4919844,559.0,118242.0,57546.0
1767829407599,1767829407.5819063,558.0,118354.0,57577.0
1767829407599,1767829407.5819218,559.0,118176.0,57519.0
1767829407600,1767829407.5819376,558.0,118255.0,57522.0
1767829407600,1767829407.581953,557.0,118232.0,57551.0
1767829407600,1767829407.5819688,557.0,118275.0,57530.0
1767829407600,1767829407.5819843,557.0,118284.0,57549.0
1767829407690,1767829407.6869063,556.0,118179.0,57560.0
1767829407690,1767829407.6869218,557.0,118295.0,57544.0
1767829407690,1767829407.6869376,557.0,118345.0,57549.0
1767829407690,1767829407.686953,559.0,118261.0,57522.0
1767829407690,1767829407.6869688,559.0,118327.0,57552.0
1767829407690,1767829407.6869843,558.0,118354.0,57563.0
1767829407778,1767829407.7769063,557.0,118255.0,57564.0
1767829407778,1767829407.7769217,558.0,118220.0,57540.0
1767829407778,1767829407.7769375,557.0,118199.0,57514.0
1767829407778,1767829407.776953,557.0,118199.0,57555.0
1767829407778,1767829407.7769687,557.0,118221.0,57559.0
1767829407778,1767829407.7769842,557.0,118190.0,57535.0
1767829407868,1767829407.8669064,559.0,118313.0,57582.0
1767829407868,1767829407.866922,558.0,118348.0,57555.0
1767829407868,1767829407.8669376,559.0,118284.0,57557.0
1767829407868,1767829407.8669531,559.0,118286.0,57549.0
1767829407868,1767829407.8669689,559.0,118322.0,57562.0
1767829407868,1767829407.8669844,557.0,118343.0,57551.0
1767829407960,1767829407.9579062,557.0,118167.0,57545.0
1767829407960,1767829407.9579217,558.0,118283.0,57556.0
1767829407960,1767829407.9579375,559.0,118321.0,57540.0
1767829407960,1767829407.957953,559.0,118298.0,57495.0
1767829407960,1767829407.9579687,559.0,118257.0,57504.0
1767829407960,1767829407.9579842,560.0,118231.0,57506.0
1767829408064,1767829408.0619063,559.0,118182.0,57481.0
1767829408065,1767829408.0619218,558.0,118072.0,57501.0
1767829408065,1767829408.0619376,559.0,118159.0,57488.0
1767829408065,1767829408.061953,557.0,118191.0,57498.0
1767829408065,1767829408.0619688,558.0,118163.0,57512.0
1767829408065,1767829408.0619843,559.0,118158.0,57479.0
1767829408153,1767829408.1519063,557.0,118151.0,57476.0
1767829408153,1767829408.1519217,557.0,117989.0,57485.0
1767829408153,1767829408.1519375,557.0,118159.0,57483.0
1767829408153,1767829408.151953,558.0,118090.0,57479.0
1767829408153,1767829408.1519687,558.0,118095.0,57459.0
1767829408153,1767829408.1519842,559.0,118132.0,57463.0
1767829408257,1767829408.2429063,559.0,118150.0,57509.0
1767829408257,1767829408.2429218,557.0,118096.0,57468.0
1767829408257,1767829408.2429376,559.0,118122.0,57465.0
1767829408257,1767829408.242953,558.0,118112.0,57479.0
1767829408257,1767829408.2429688,557.0,118036.0,57470.0
1767829408257,1767829408.2429843,557.0,118033.0,57472.0
1767829408348,1767829408.3319063,558.0,118046.0,57465.0
1767829408348,1767829408.3319218,557.0,118015.0,57447.0
1767829408348,1767829408.3319376,558.0,118130.0,57465.0
1767829408348,1767829408.331953,557.0,118081.0,57490.0
1767829408348,1767829408.3319688,556.0,118036.0,57467.0
1767829408348,1767829408.3319843,560.0,118092.0,57478.0
1767829408438,1767829408.4369063,558.0,118081.0,57490.0
1767829408438,1767829408.4369218,560.0,118165.0,57477.0
1767829408438,1767829408.4369376,561.0,118148.0,57480.0
1767829408438,1767829408.436953,558.0,118085.0,57484.0
1767829408438,1767829408.4369688,558.0,118161.0,57487.0
1767829408438,1767829408.4369843,558.0,118075.0,57456.0
1767829408528,1767829408.5269063,558.0,118133.0,57479.0
1767829408528,1767829408.5269217,559.0,118016.0,57471.0
1767829408528,1767829408.5269375,559.0,118128.0,57492.0
1767829408528,1767829408.526953,560.0,118132.0,57482.0
1767829408528,1767829408.5269687,559.0,118141.0,57517.0
1767829408528,1767829408.5269842,559.0,118154.0,57482.0
1767829408621,1767829408.6159062,559.0,118221.0,57515.0
1767829408621,1767829408.6159217,558.0,118187.0,57469.0
1767829408621,1767829408.6159375,559.0,118181.0,57519.0
1767829408621,1767829408.615953,559.0,118160.0,57485.0
1767829408621,1767829408.6159687,560.0,118199.0,57525.0
1767829408621,1767829408.6159842,561.0,118150.0,57485.0
1767829408713,1767829408.7089064,559.0,118248.0,57530.0
1767829408713,1767829408.708922,558.0,118223.0,57513.0
1767829408713,1767829408.7089376,561.0,118167.0,57493.0
1767829408713,1767829408.7089531,559.0,118152.0,57495.0
1767829408713,1767829408.7089689,559.0,118168.0,57479.0
1767829408713,1767829408.7089844,560.0,118167.0,57485.0
1767829408815,1767829408.8109064,559.0,118098.0,57478.0
1767829408819,1767829408.810922,559.0,118134.0,57508.0
1767829408820,1767829408.8109376,559.0,118012.0,57441.0
1767829408820,1767829408.8109531,559.0,118116.0,57461.0
1767829408820,1767829408.8109689,560.0,118153.0,57430.0
1767829408820,1767829408.8109844,559.0,118104.0,57461.0
1767829408905,1767829408.9019063,561.0,118151.0,57449.0
1767829408905,1767829408.9019217,560.0,117981.0,57438.0
1767829408905,1767829408.9019375,559.0,117976.0,57432.0
1767829408905,1767829408.901953,560.0,118033.0,57458.0
1767829408905,1767829408.9019687,558.0,117829.0,57438.0
1767829408905,1767829408.9019842,558.0,117985.0,57443.0
1767829408994,1767829408.9909062,561.0,118053.0,57426.0
1767829408994,1767829408.9909217,559.0,118027.0,57466.0
1767829408994,1767829408.9909375,560.0,117977.0,57427.0
1767829408994,1767829408.990953,559.0,117956.0,57422.0
1767829408994,1767829408.9909687,559.0,117964.0,57408.0
1767829408994,1767829408.9909842,560.0,118058.0,57420.0
1767829409097,1767829409.0819063,559.0,117869.0,57418.0
1767829409097,1767829409.0819218,560.0,118041.0,57418.0
1767829409097,1767829409.0819376,559.0,117910.0,57435.0
1767829409097,1767829409.081953,561.0,118054.0,57433.0
1767829409097,1767829409.0819688,559.0,117973.0,57465.0
1767829409097,1767829409.0819843,560.0,117958.0,57434.0
1767829409192,1767829409.1869063,560.0,117961.0,57462.0
1767829409192,1767829409.1869218,560.0,117998.0,57439.0
1767829409192,1767829409.1869376,561.0,118011.0,57447.0
1767829409192,1767829409.186953,559.0,118011.0,57456.0
1767829409192,1767829409.1869688,561.0,118010.0,57454.0
1767829409192,1767829409.1869843,560.0,117998.0,57459.0
1767829409280,1767829409.2779064,562.0,118002.0,57449.0
1767829409280,1767829409.277922,562.0,117985.0,57487.0
1767829409280,1767829409.2779377,561.0,117956.0,57447.0
1767829409280,1767829409.2779531,561.0,118000.0,57445.0
1767829409280,1767829409.277969,560.0,118069.0,57463.0
1767829409280,1767829409.2779844,560.0,118002.0,57484.0
1767829409369,1767829409.3669064,560.0,117954.0,57460.0
1767829409369,1767829409.366922,561.0,118142.0,57516.0
1767829409369,1767829409.3669376,561.0,118060.0,57472.0
1767829409369,1767829409.3669531,560.0,117955.0,57478.0
1767829409369,1767829409.3669689,559.0,118071.0,57468.0
1767829409369,1767829409.3669844,562.0,118032.0,57473.0
1767829409473,1767829409.4719062,560.0,118035.0,57444.0
1767829409473,1767829409.4719217,559.0,118086.0,57487.0
1767829409473,1767829409.4719374,561.0,118053.0,57476.0
1767829409473,1767829409.471953,559.0,118117.0,57505.0
1767829409473,1767829409.4719687,560.0,118088.0,57486.0
1767829409473,1767829409.4719841,562.0,118149.0,57495.0
1767829409594,1767829409.5769062,560.0,118000.0,57509.0
1767829409594,1767829409.5769217,560.0,118113.0,57490.0
1767829409594,1767829409.5769374,560.0,118094.0,57509.0
1767829409594,1767829409.576953,560.0,118083.0,57467.0
1767829409594,1767829409.5769687,559.0,117990.0,57476.0
1767829409594,1767829409.5769842,561.0,118046.0,57479.0
1767829409655,1767829409.6519063,560.0,118000.0,57456.0
1767829409655,1767829409.6519217,559.0,118101.0,57439.0
1767829409655,1767829409.6519375,561.0,118000.0,57462.0
1767829409655,1767829409.651953,560.0,118010.0,57455.0
1767829409655,1767829409.6519687,559.0,118049.0,57493.0
1767829409655,1767829409.6519842,560.0,117970.0,57435.0
1767829409744,1767829409.7419064,561.0,118041.0,57440.0
1767829409744,1767829409.741922,559.0,117926.0,57472.0
1767829409744,1767829409.7419376,560.0,117999.0,57442.0
1767829409744,1767829409.7419531,561.0,117936.0,57471.0
1767829409744,1767829409.7419689,560.0,117974.0,57468.0
1767829409744,1767829409.7419844,563.0,117955.0,57424.0
1767829409849,1767829409.8469062,560.0,117921.0,57447.0
1767829409849,1767829409.8469217,561.0,117936.0,57438.0
1767829409849,1767829409.8469374,562.0,117921.0,57463.0
1767829409849,1767829409.846953,560.0,117933.0,57466.0
1767829409849,1767829409.8469687,561.0,118009.0,57480.0
1767829409849,1767829409.8469841,561.0,117893.0,57453.0
1767829409940,1767829409.9369063,562.0,117872.0,57418.0
1767829409940,1767829409.9369218,561.0,117953.0,57474.0
1767829409940,1767829409.9369376,561.0,117981.0,57453.0
1767829409940,1767829409.936953,561.0,117902.0,57440.0
1767829409940,1767829409.9369688,561.0,117900.0,57447.0
1767829409940,1767829409.9369843,560.0,117905.0,57470.0
1767829410030,1767829410.0279064,560.0,117967.0,57459.0
1767829410030,1767829410.027922,559.0,117883.0,57458.0
1767829410030,1767829410.0279377,561.0,117971.0,57471.0
1767829410030,1767829410.0279531,561.0,117983.0,57458.0
1767829410030,1767829410.027969,560.0,117912.0,57455.0
1767829410030,1767829410.0279844,562.0,117991.0,57466.0
1767829410119,1767829410.1169064,559.0,117859.0,57443.0
1767829410119,1767829410.116922,559.0,117883.0,57456.0
1767829410119,1767829410.1169376,562.0,117998.0,57467.0
1767829410119,1767829410.1169531,562.0,118079.0,57481.0
1767829410119,1767829410.1169689,560.0,117936.0,57465.0
1767829410119,1767829410.1169844,562.0,117986.0,57470.0
1767829410222,1767829410.2079062,561.0,117961.0,57470.0
1767829410222,1767829410.2079217,561.0,118001.0,57489.0
1767829410222,1767829410.2079375,562.0,118036.0,57470.0
1767829410222,1767829410.207953,562.0,118062.0,57482.0
1767829410222,1767829410.2079687,563.0,118062.0,57483.0
1767829410222,1767829410.2079842,562.0,117972.0,57474.0
1767829410315,1767829410.3109064,563.0,118082.0,57506.0
1767829410315,1767829410.310922,563.0,118114.0,57511.0
1767829410315,1767829410.3109376,561.0,118029.0,57492.0
1767829410315,1767829410.3109531,561.0,118048.0,57505.0
1767829410315,1767829410.3109689,561.0,118014.0,57490.0
1767829410315,1767829410.3109844,562.0,118124.0,57451.0
1767829410405,1767829410.4019063,563.0,118036.0,57488.0
1767829410405,1767829410.4019217,563.0,118077.0,57425.0
1767829410405,1767829410.4019375,561.0,117877.0,57460.0
1767829410405,1767829410.401953,562.0,117903.0,57459.0
1767829410405,1767829410.4019687,564.0,117964.0,57444.0
1767829410405,1767829410.4019842,562.0,117881.0,57439.0
1767829410494,1767829410.4919064,560.0,117831.0,57444.0
1767829410494,1767829410.491922,563.0,117971.0,57461.0
1767829410494,1767829410.4919376,564.0,117904.0,57446.0
1767829410494,1767829410.4919531,562.0,117959.0,57453.0
1767829410494,1767829410.4919689,563.0,117773.0,57442.0
1767829410494,1767829410.4919844,564.0,117967.0,57445.0
1767829410587,1767829410.5829062,562.0,117877.0,57423.0
1767829410587,1767829410.5829217,563.0,117952.0,57439.0
1767829410587,1767829410.5829375,562.0,117905.0,57453.0
1767829410587,1767829410.582953,562.0,117889.0,57446.0
1767829410587,1767829410.5829687,563.0,117902.0,57436.0
1767829410587,1767829410.5829842,563.0,117741.0,57421.0
1767829410692,1767829410.6859064,565.0,117930.0,57466.0
1767829410692,1767829410.685922,564.0,117976.0,57462.0
1767829410692,1767829410.6859376,563.0,117820.0,57445.0
1767829410692,1767829410.6859531,563.0,117948.0,57459.0
1767829410692,1767829410.6859689,562.0,117841.0,57433.0
1767829410692,1767829410.6859844,561.0,117813.0,57454.0
1767829410780,1767829410.7769063,564.0,117910.0,57437.0
1767829410780,1767829410.7769217,560.0,117858.0,57477.0
1767829410780,1767829410.7769375,563.0,117881.0,57456.0
1767829410780,1767829410.776953,562.0,117883.0,57431.0
1767829410780,1767829410.7769687,563.0,117948.0,57423.0
1767829410780,1767829410.7769842,564.0,117966.0,57454.0
1767829410871,1767829410.8679063,561.0,117813.0,57456.0
1767829410871,1767829410.8679218,562.0,117917.0,57453.0
1767829410871,1767829410.8679376,563.0,117903.0,57463.0
1767829410871,1767829410.867953,563.0,117993.0,57462.0
1767829410871,1767829410.8679688,564.0,117940.0,57492.0
1767829410871,1767829410.8679843,563.0,117937.0,57461.0
1767829410972,1767829410.9569063,564.0,117951.0,57447.0
1767829410972,1767829410.9569218,565.0,118036.0,57464.0
1767829410972,1767829410.9569376,562.0,117942.0,57486.0
1767829410972,1767829410.956953,563.0,117949.0,57461.0
1767829410972,1767829410.9569688,564.0,117913.0,57497.0
1767829410972,1767829410.9569843,563.0,117998.0,57467.0
1767829411063,1767829411.0619063,563.0,117837.0,57479.0
1767829411063,1767829411.0619218,564.0,118083.0,57503.0
1767829411063,1767829411.0619376,562.0,118023.0,57489.0
1767829411063,1767829411.061953,564.0,118055.0,57508.0
1767829411063,1767829411.0619688,563.0,118030.0,57487.0
1767829411063,1767829411.0619843,564.0,118090.0,57498.0
1767829411156,1767829411.1529064,563.0,117985.0,57482.0
1767829411156,1767829411.152922,563.0,117916.0,57474.0
1767829411156,1767829411.1529377,563.0,117974.0,57449.0
1767829411156,1767829411.1529531,563.0,117952.0,57452.0
1767829411156,1767829411.152969,560.0,117815.0,57444.0
1767829411156,1767829411.1529844,563.0,117967.0,57463.0
1767829411244,1767829411.2419064,561.0,117828.0,57431.0
1767829411244,1767829411.241922,561.0,117768.0,57450.0
1767829411244,1767829411.2419376,564.0,117807.0,57423.0
1767829411244,1767829411.2419531,564.0,117882.0,57436.0
1767829411244,1767829411.2419689,563.0,117947.0,57437.0
1767829411244,1767829411.2419844,562.0,117806.0,57426.0
1767829411341,1767829411.3359063,562.0,117790.0,57447.0
1767829411341,1767829411.3359218,563.0,117844.0,57426.0
1767829411341,1767829411.3359375,562.0,117757.0,57436.0
1767829411341,1767829411.335953,561.0,117837.0,57429.0
1767829411341,1767829411.3359687,561.0,117715.0,57425.0
1767829411341,1767829411.3359842,562.0,117877.0,57445.0
1767829411439,1767829411.4369063,563.0,117883.0,57451.0
1767829411439,1767829411.4369218,563.0,117844.0,57411.0
1767829411439,1767829411.4369376,560.0,117688.0,57401.0
1767829411439,1767829411.436953,563.0,117853.0,57450.0
1767829411439,1767829411.4369688,563.0,117897.0,57433.0
1767829411439,1767829411.4369843,563.0,117827.0,57418.0
1767829411529,1767829411.5269063,564.0,117860.0,57406.0
1767829411529,1767829411.5269217,562.0,117758.0,57399.0
1767829411529,1767829411.5269375,564.0,117816.0,57431.0
1767829411529,1767829411.526953,564.0,117813.0,57397.0
1767829411529,1767829411.5269687,565.0,117832.0,57430.0
1767829411529,1767829411.5269842,566.0,117858.0,57438.0
1767829411618,1767829411.6169064,565.0,117815.0,57426.0
1767829411618,1767829411.616922,565.0,117790.0,57390.0
1767829411618,1767829411.6169376,567.0,117699.0,57399.0
1767829411618,1767829411.6169531,567.0,117866.0,57425.0
1767829411618,1767829411.6169689,569.0,117732.0,57409.0
1767829411618,1767829411.6169844,569.0,117817.0,57398.0
1767829411724,1767829411.7069063,569.0,117761.0,57405.0
1767829411724,1767829411.7069218,572.0,117822.0,57424.0
1767829411724,1767829411.7069376,572.0,117815.0,57439.0
1767829411724,1767829411.706953,574.0,117784.0,57439.0
1767829411724,1767829411.7069688,572.0,117888.0,57417.0
1767829411724,1767829411.7069843,571.0,117812.0,57436.0
1767829411813,1767829411.8119063,573.0,117945.0,57441.0
1767829411813,1767829411.8119218,573.0,117733.0,57427.0
1767829411813,1767829411.8119376,574.0,117903.0,57457.0
1767829411813,1767829411.811953,573.0,117880.0,57419.0
1767829411813,1767829411.8119688,573.0,117933.0,57411.0
1767829411813,1767829411.8119843,574.0,117884.0,57447.0
1767829411909,1767829411.9029064,573.0,117923.0,57468.0
1767829411909,1767829411.902922,574.0,117906.0,57446.0
1767829411910,1767829411.9029377,574.0,117962.0,57464.0
1767829411910,1767829411.9029531,573.0,117946.0,57470.0
1767829411910,1767829411.902969,572.0,117742.0,57456.0
1767829411910,1767829411.9029844,574.0,117944.0,57457.0
1767829411993,1767829411.9919064,573.0,117936.0,57409.0
1767829411993,1767829411.991922,573.0,117759.0,57394.0
1767829411993,1767829411.9919376,574.0,117841.0,57449.0
1767829411993,1767829411.9919531,574.0,117834.0,57402.0
1767829411993,1767829411.9919689,574.0,117805.0,57439.0
1767829411993,1767829411.9919844,573.0,117780.0,57423.0
1767829412099,1767829412.0819063,574.0,117848.0,57395.0
1767829412099,1767829412.0819218,571.0,117794.0,57446.0
1767829412099,1767829412.0819376,572.0,117794.0,57412.0
1767829412099,1767829412.081953,572.0,117735.0,57401.0
1767829412099,1767829412.0819688,571.0,117733.0,57412.0
1767829412099,1767829412.0819843,571.0,117730.0,57399.0
1767829412188,1767829412.1859064,570.0,117681.0,57393.0
1767829412188,1767829412.185922,571.0,117783.0,57395.0
1767829412188,1767829412.1859376,572.0,117737.0,57403.0
1767829412188,1767829412.1859531,572.0,117681.0,57404.0
1767829412188,1767829412.1859689,571.0,117663.0,57400.0
1767829412188,1767829412.1859844,571.0,117744.0,57404.0
1767829412280,1767829412.2769063,572.0,117728.0,57388.0
1767829412280,1767829412.2769217,570.0,117744.0,57405.0
1767829412280,1767829412.2769375,572.0,117702.0,57401.0
1767829412280,1767829412.276953,572.0,117755.0,57386.0
1767829412280,1767829412.2769687,571.0,117779.0,57396.0
1767829412280,1767829412.2769842,571.0,117591.0,57389.0
1767829412369,1767829412.3669064,572.0,117802.0,57385.0
1767829412369,1767829412.366922,572.0,117776.0,57385.0
1767829412369,1767829412.3669376,570.0,117692.0,57365.0
1767829412369,1767829412.3669531,570.0,117713.0,57398.0
1767829412369,1767829412.3669689,571.0,117680.0,57390.0
1767829412369,1767829412.3669844,570.0,117660.0,57386.0
1767829412463,1767829412.4579062,571.0,117729.0,57433.0
1767829412463,1767829412.4579217,569.0,117715.0,57413.0
1767829412463,1767829412.4579375,569.0,117690.0,57398.0
1767829412463,1767829412.457953,570.0,117764.0,57411.0
1767829412463,1767829412.4579687,571.0,117782.0,57409.0
1767829412463,1767829412.4579842,569.0,117703.0,57412.0
1767829412564,1767829412.5619063,570.0,117690.0,57402.0
1767829412564,1767829412.5619218,571.0,117818.0,57410.0
1767829412564,1767829412.5619376,569.0,117779.0,57437.0
1767829412564,1767829412.561953,570.0,117759.0,57423.0
1767829412564,1767829412.5619688,568.0,117712.0,57462.0
1767829412564,1767829412.5619843,570.0,117775.0,57410.0
1767829412655,1767829412.6519063,571.0,117723.0,57433.0
1767829412655,1767829412.6519217,572.0,117834.0,57389.0
1767829412655,1767829412.6519375,572.0,117755.0,57434.0
1767829412655,1767829412.651953,572.0,117770.0,57448.0
1767829412655,1767829412.6519687,571.0,117713.0,57424.0
1767829412655,1767829412.6519842,570.0,117854.0,57447.0
1767829412745,1767829412.7429063,572.0,117935.0,57438.0
1767829412745,1767829412.7429218,572.0,117888.0,57445.0
1767829412745,1767829412.7429376,572.0,117940.0,57475.0
1767829412745,1767829412.742953,573.0,117888.0,57442.0
1767829412745,1767829412.7429688,572.0,117825.0,57418.0
1767829412745,1767829412.7429843,573.0,117774.0,57419.0
1767829412847,1767829412.8319063,570.0,117696.0,57410.0
1767829412847,1767829412.8319218,570.0,117721.0,57409.0
1767829412847,1767829412.8319376,571.0,117723.0,57400.0
1767829412847,1767829412.831953,572.0,117809.0,57401.0
1767829412847,1767829412.8319688,571.0,117567.0,57392.0
1767829412847,1767829412.8319843,571.0,117748.0,57391.0
1767829412939,1767829412.9369063,571.0,117713.0,57368.0
1767829412939,1767829412.9369218,572.0,117784.0,57397.0
1767829412939,1767829412.9369376,571.0,117687.0,57406.0
1767829412939,1767829412.936953,573.0,117716.0,57402.0
1767829412939,1767829412.9369688,570.0,117539.0,57375.0
1767829412939,1767829412.9369843,570.0,117636.0,57362.0
1767829413029,1767829413.0269063,570.0,117735.0,57397.0
1767829413029,1767829413.0269217,570.0,117649.0,57393.0
1767829413029,1767829413.0269375,570.0,117721.0,57404.0
1767829413029,1767829413.026953,571.0,117599.0,57369.0
1767829413029,1767829413.0269687,572.0,117770.0,57376.0
1767829413029,1767829413.0269842,571.0,117655.0,57359.0
1767829413119,1767829413.1169064,572.0,117680.0,57376.0
1767829413119,1767829413.116922,571.0,117631.0,57365.0
1767829413119,1767829413.1169376,572.0,117733.0,57374.0
1767829413119,1767829413.1169531,572.0,117649.0,57370.0
1767829413119,1767829413.1169689,571.0,117676.0,57386.0
1767829413119,1767829413.1169844,571.0,117680.0,57388.0
1767829413209,1767829413.2069063,569.0,117530.0,57360.0
1767829413209,1767829413.2069218,571.0,117724.0,57377.0
1767829413209,1767829413.2069376,570.0,117663.0,57375.0
1767829413209,1767829413.206953,571.0,117668.0,57386.0
1767829413209,1767829413.2069688,571.0,117672.0,57369.0
1767829413209,1767829413.2069843,570.0,117713.0,57397.0
1767829413314,1767829413.3119063,573.0,117749.0,57378.0
1767829413314,1767829413.3119218,570.0,117729.0,57416.0
1767829413314,1767829413.3119376,571.0,117623.0,57395.0
1767829413314,1767829413.311953,572.0,117680.0,57396.0
1767829413314,1767829413.3119688,572.0,117778.0,57416.0
1767829413314,1767829413.3119843,573.0,117756.0,57396.0
1767829413404,1767829413.4019063,571.0,117670.0,57382.0
1767829413404,1767829413.4019217,574.0,117817.0,57417.0
1767829413404,1767829413.4019375,573.0,117773.0,57394.0
1767829413404,1767829413.401953,571.0,117702.0,57423.0
1767829413404,1767829413.4019687,573.0,117728.0,57390.0
1767829413404,1767829413.4019842,571.0,117794.0,57402.0
1767829413494,1767829413.4919064,572.0,117794.0,57415.0
1767829413494,1767829413.491922,571.0,117790.0,57403.0
1767829413494,1767829413.4919376,573.0,117742.0,57410.0
1767829413494,1767829413.4919531,574.0,117834.0,57426.0
1767829413494,1767829413.4919689,573.0,117889.0,57442.0
1767829413494,1767829413.4919844,572.0,117716.0,57410.0
1767829413600,1767829413.5819063,572.0,117885.0,57466.0
1767829413601,1767829413.5819218,574.0,117750.0,57419.0
1767829413601,1767829413.5819376,572.0,117803.0,57407.0
1767829413601,1767829413.581953,572.0,117728.0,57408.0
1767829413601,1767829413.5819688,573.0,117846.0,57357.0
1767829413601,1767829413.5819843,571.0,117790.0,57388.0
1767829413691,1767829413.6889062,572.0,117771.0,57408.0
1767829413691,1767829413.6889217,572.0,117707.0,57379.0
1767829413691,1767829413.6889374,573.0,117774.0,57393.0
1767829413691,1767829413.688953,574.0,117764.0,57379.0
1767829413691,1767829413.6889687,574.0,117820.0,57365.0
1767829413691,1767829413.6889842,574.0,117717.0,57374.0
1767829413780,1767829413.7779064,574.0,117707.0,57371.0
1767829413780,1767829413.777922,575.0,117720.0,57354.0
1767829413780,1767829413.7779377,573.0,117700.0,57366.0
1767829413780,1767829413.7779531,573.0,117711.0,57355.0
1767829413780,1767829413.777969,575.0,117777.0,57383.0
1767829413780,1767829413.7779844,572.0,117723.0,57410.0
1767829413870,1767829413.8669064,572.0,117641.0,57389.0
1767829413870,1767829413.866922,571.0,117611.0,57366.0
1767829413870,1767829413.8669376,571.0,117647.0,57369.0
1767829413870,1767829413.8669531,572.0,117798.0,57390.0
1767829413870,1767829413.8669689,570.0,117572.0,57407.0
1767829413870,1767829413.8669844,571.0,117657.0,57375.0
1767829413988,1767829413.9569063,571.0,117629.0,57373.0
1767829413988,1767829413.9569218,572.0,117746.0,57406.0
1767829413988,1767829413.9569376,573.0,117673.0,57372.0
1767829413988,1767829413.956953,573.0,117692.0,57381.0
1767829413988,1767829413.9569688,571.0,117709.0,57402.0
1767829413988,1767829413.9569843,572.0,117683.0,57372.0
1767829414065,1767829414.0619063,575.0,117656.0,57398.0
1767829414065,1767829414.0619218,573.0,117656.0,57389.0
1767829414065,1767829414.0619376,574.0,117731.0,57393.0
1767829414065,1767829414.061953,574.0,117611.0,57378.0
1767829414065,1767829414.0619688,573.0,117725.0,57396.0
1767829414065,1767829414.0619843,573.0,117700.0,57396.0
1767829414154,1767829414.1519063,574.0,117735.0,57411.0
1767829414154,1767829414.1519217,574.0,117694.0,57383.0
1767829414154,1767829414.1519375,575.0,117802.0,57406.0
1767829414154,1767829414.151953,575.0,117739.0,57392.0
1767829414154,1767829414.1519687,575.0,117783.0,57385.0
1767829414154,1767829414.1519842,574.0,117805.0,57418.0
1767829414260,1767829414.2569063,573.0,117770.0,57412.0
1767829414260,1767829414.2569218,575.0,117809.0,57390.0
1767829414260,1767829414.2569375,574.0,117813.0,57427.0
1767829414260,1767829414.256953,573.0,117794.0,57423.0
1767829414260,1767829414.2569687,574.0,117727.0,57422.0
1767829414260,1767829414.2569842,573.0,117711.0,57419.0
1767829414349,1767829414.3319063,574.0,117833.0,57425.0
1767829414349,1767829414.3319218,574.0,117845.0,57394.0
1767829414349,1767829414.3319376,573.0,117832.0,57442.0
1767829414349,1767829414.331953,574.0,117876.0,57407.0
1767829414349,1767829414.3319688,573.0,117728.0,57378.0
1767829414349,1767829414.3319843,574.0,117846.0,57395.0
1767829414441,1767829414.4369063,574.0,117661.0,57392.0
1767829414441,1767829414.4369218,575.0,117768.0,57376.0
1767829414441,1767829414.4369376,575.0,117727.0,57394.0
1767829414441,1767829414.436953,574.0,117739.0,57374.0
1767829414441,1767829414.4369688,575.0,117646.0,57373.0
1767829414441,1767829414.4369843,576.0,117755.0,57381.0
1767829414529,1767829414.5269063,574.0,117717.0,57382.0
1767829414529,1767829414.5269217,576.0,117792.0,57379.0
1767829414529,1767829414.5269375,576.0,117664.0,57369.0
1767829414529,1767829414.526953,574.0,117683.0,57364.0
1767829414529,1767829414.5269687,574.0,117585.0,57360.0
1767829414529,1767829414.5269842,575.0,117715.0,57395.0
1767829414621,1767829414.6169064,574.0,117672.0,57363.0
1767829414623,1767829414.616922,575.0,117715.0,57366.0
1767829414623,1767829414.6169376,576.0,117734.0,57386.0
1767829414623,1767829414.6169531,575.0,117706.0,57379.0
1767829414623,1767829414.6169689,574.0,117660.0,57374.0
1767829414623,1767829414.6169844,574.0,117636.0,57383.0
1767829414709,1767829414.7069063,574.0,117692.0,57371.0
1767829414709,1767829414.7069218,574.0,117653.0,57378.0
1767829414709,1767829414.7069376,575.0,117724.0,57376.0
1767829414709,1767829414.706953,575.0,117729.0,57384.0
1767829414709,1767829414.7069688,574.0,117687.0,57412.0
1767829414709,1767829414.7069843,574.0,117653.0,57360.0
1767829414818,1767829414.8119063,575.0,117745.0,57402.0
1767829414818,1767829414.8119218,575.0,117617.0,57363.0
1767829414818,1767829414.8119376,575.0,117711.0,57398.0
1767829414818,1767829414.811953,575.0,117647.0,57370.0
1767829414818,1767829414.8119688,574.0,117597.0,57369.0
1767829414818,1767829414.8119843,576.0,117725.0,57372.0
1767829414905,1767829414.9019063,575.0,117774.0,57382.0
1767829414905,1767829414.9019217,575.0,117664.0,57377.0
1767829414905,1767829414.9019375,575.0,117719.0,57386.0
1767829414905,1767829414.901953,574.0,117690.0,57393.0
1767829414905,1767829414.9019687,574.0,117727.0,57388.0
1767829414905,1767829414.9019842,575.0,117704.0,57381.0
1767829415009,1767829414.9919064,575.0,117772.0,57393.0
1767829415009,1767829414.991922,575.0,117683.0,57381.0
1767829415009,1767829414.9919376,576.0,117782.0,57400.0
1767829415009,1767829414.9919531,575.0,117689.0,57402.0
1767829415009,1767829414.9919689,573.0,117724.0,57386.0
1767829415009,1767829414.9919844,576.0,117793.0,57399.0
1767829415085,1767829415.0829062,577.0,117883.0,57457.0
1767829415085,1767829415.0829217,572.0,117713.0,57408.0
1767829415085,1767829415.0829375,574.0,117831.0,57415.0
1767829415085,1767829415.082953,575.0,117682.0,57394.0
1767829415085,1767829415.0829687,575.0,117836.0,57404.0
1767829415085,1767829415.0829842,575.0,117832.0,57409.0
1767829415189,1767829415.1869063,575.0,117815.0,57418.0
1767829415190,1767829415.1869218,575.0,117897.0,57431.0
1767829415190,1767829415.1869376,574.0,117756.0,57391.0
1767829415190,1767829415.186953,575.0,117743.0,57373.0
1767829415190,1767829415.1869688,574.0,117714.0,57384.0
1767829415190,1767829415.1869843,576.0,117762.0,57378.0
1767829415279,1767829415.2769063,575.0,117726.0,57385.0
1767829415279,1767829415.2769217,574.0,117749.0,57331.0
1767829415279,1767829415.2769375,574.0,117687.0,57392.0
1767829415279,1767829415.276953,575.0,117607.0,57357.0
1767829415279,1767829415.2769687,573.0,117578.0,57336.0
1767829415279,1767829415.2769842,572.0,117691.0,57368.0
1767829415372,1767829415.3679063,573.0,117706.0,57350.0
1767829415372,1767829415.3679218,573.0,117609.0,57361.0
1767829415372,1767829415.3679376,573.0,117619.0,57327.0
1767829415372,1767829415.367953,576.0,117690.0,57361.0
1767829415372,1767829415.3679688,573.0,117679.0,57372.0
1767829415372,1767829415.3679843,574.0,117686.0,57360.0
1767829415473,1767829415.4569063,574.0,117604.0,57339.0
1767829415473,1767829415.4569218,573.0,117638.0,57349.0
1767829415473,1767829415.4569376,576.0,117684.0,57335.0
1767829415473,1767829415.456953,573.0,117550.0,57354.0
1767829415473,1767829415.4569688,577.0,117695.0,57337.0
1767829415473,1767829415.4569843,574.0,117625.0,57341.0
1767829415565,1767829415.5619063,575.0,117575.0,57356.0
1767829415565,1767829415.5619218,574.0,117543.0,57352.0
1767829415565,1767829415.5619376,575.0,117618.0,57342.0
1767829415565,1767829415.561953,575.0,117658.0,57341.0
1767829415565,1767829415.5619688,574.0,117564.0,57378.0
1767829415565,1767829415.5619843,574.0,117665.0,57350.0
1767829415656,1767829415.6529064,574.0,117683.0,57362.0
1767829415656,1767829415.652922,574.0,117740.0,57361.0
1767829415656,1767829415.6529377,573.0,117682.0,57361.0
1767829415656,1767829415.6529531,572.0,117524.0,57346.0
1767829415656,1767829415.652969,574.0,117617.0,57325.0
1767829415656,1767829415.6529844,574.0,117705.0,57342.0
1767829415748,1767829415.7419064,575.0,117691.0,57346.0
1767829415748,1767829415.741922,575.0,117687.0,57339.0
1767829415748,1767829415.7419376,575.0,117644.0,57376.0
1767829415748,1767829415.7419531,577.0,117647.0,57343.0
1767829415748,1767829415.7419689,574.0,117711.0,57377.0
1767829415748,1767829415.7419844,574.0,117724.0,57355.0
1767829415847,1767829415.8319063,575.0,117752.0,57348.0
1767829415847,1767829415.8319218,574.0,117782.0,57375.0
1767829415847,1767829415.8319376,573.0,117723.0,57370.0
1767829415847,1767829415.831953,574.0,117763.0,57379.0
1767829415847,1767829415.8319688,575.0,117804.0,57368.0
1767829415847,1767829415.8319843,574.0,117707.0,57381.0
1767829415927,1767829415.9239063,573.0,117768.0,57369.0
1767829415927,1767829415.9239218,573.0,117760.0,57406.0
1767829415927,1767829415.9239376,574.0,117725.0,57405.0
1767829415927,1767829415.923953,571.0,117660.0,57392.0
1767829415927,1767829415.9239688,572.0,117733.0,57383.0
1767829415927,1767829415.9239843,573.0,117795.0,57391.0
1767829416029,1767829416.0269063,572.0,117758.0,57386.0
1767829416029,1767829416.0269217,574.0,117758.0,57340.0
1767829416029,1767829416.0269375,573.0,117751.0,57357.0
1767829416029,1767829416.026953,572.0,117734.0,57347.0
1767829416029,1767829416.0269687,573.0,117697.0,57332.0
1767829416029,1767829416.0269842,573.0,117754.0,57341.0
1767829416133,1767829416.1319063,574.0,117752.0,57363.0
1767829416133,1767829416.1319218,572.0,117747.0,57370.0
1767829416133,1767829416.1319375,573.0,117715.0,57334.0
1767829416133,1767829416.131953,573.0,117675.0,57350.0
1767829416133,1767829416.1319687,571.0,117541.0,57346.0
1767829416133,1767829416.1319842,573.0,117674.0,57329.0
1767829416237,1767829416.2069063,572.0,117493.0,57318.0
1767829416237,1767829416.2069218,573.0,117681.0,57360.0
1767829416237,1767829416.2069376,573.0,117561.0,57300.0
1767829416237,1767829416.206953,573.0,117604.0,57327.0
1767829416237,1767829416.2069688,576.0,117704.0,57346.0
1767829416237,1767829416.2069843,574.0,117629.0,57320.0
1767829416314,1767829416.3119063,573.0,117521.0,57311.0
1767829416314,1767829416.3119218,573.0,117656.0,57345.0
1767829416314,1767829416.3119376,574.0,117656.0,57321.0
1767829416315,1767829416.311953,574.0,117631.0,57315.0
1767829416315,1767829416.3119688,576.0,117737.0,57316.0
1767829416315,1767829416.3119843,574.0,117685.0,57352.0
1767829416404,1767829416.4019063,573.0,117656.0,57321.0
1767829416404,1767829416.4019217,572.0,117484.0,57315.0
1767829416404,1767829416.4019375,574.0,117564.0,57321.0
1767829416404,1767829416.401953,574.0,117639.0,57320.0
1767829416404,1767829416.4019687,572.0,117599.0,57329.0
1767829416404,1767829416.4019842,573.0,117625.0,57287.0
1767829416497,1767829416.4919064,574.0,117705.0,57330.0
1767829416497,1767829416.491922,575.0,117685.0,57359.0
1767829416497,1767829416.4919376,572.0,117621.0,57340.0
1767829416497,1767829416.4919531,573.0,117614.0,57328.0
1767829416497,1767829416.4919689,575.0,117703.0,57344.0
1767829416497,1767829416.4919844,573.0,117699.0,57351.0
1767829416597,1767829416.5819063,572.0,117592.0,57323.0
1767829416597,1767829416.5819218,575.0,117732.0,57352.0
1767829416597,1767829416.5819376,573.0,117608.0,57344.0
1767829416597,1767829416.581953,573.0,117673.0,57356.0
1767829416597,1767829416.5819688,574.0,117761.0,57351.0
1767829416597,1767829416.5819843,574.0,117690.0,57363.0
1767829416690,1767829416.6729064,574.0,117732.0,57338.0
1767829416690,1767829416.672922,573.0,117713.0,57364.0
1767829416690,1767829416.6729376,575.0,117732.0,57357.0
1767829416690,1767829416.6729531,572.0,117754.0,57368.0
1767829416690,1767829416.6729689,573.0,117707.0,57356.0
1767829416690,1767829416.6729844,575.0,117766.0,57359.0
1767829416779,1767829416.7769063,575.0,117801.0,57377.0
1767829416779,1767829416.7769217,577.0,117782.0,57372.0
1767829416779,1767829416.7769375,574.0,117712.0,57361.0
1767829416779,1767829416.776953,576.0,117693.0,57341.0
1767829416779,1767829416.7769687,575.0,117800.0,57334.0
1767829416779,1767829416.7769842,575.0,117776.0,57385.0
1767829416869,1767829416.8669064,577.0,117864.0,57380.0
1767829416869,1767829416.866922,575.0,117752.0,57368.0
1767829416869,1767829416.8669376,576.0,117754.0,57352.0
1767829416869,1767829416.8669531,578.0,117796.0,57347.0
1767829416869,1767829416.8669689,578.0,117690.0,57317.0
1767829416869,1767829416.8669844,576.0,117698.0,57335.0
1767829416962,1767829416.9579062,576.0,117686.0,57372.0
1767829416963,1767829416.9579217,577.0,117602.0,57338.0
1767829416963,1767829416.9579375,578.0,117661.0,57298.0
1767829416963,1767829416.957953,575.0,117627.0,57304.0
1767829416963,1767829416.9579687,576.0,117639.0,57336.0
1767829416963,1767829416.9579842,576.0,117558.0,57300.0
1767829417064,1767829417.0619063,578.0,117664.0,57309.0
1767829417064,1767829417.0619218,577.0,117671.0,57307.0
1767829417064,1767829417.0619376,578.0,117721.0,57323.0
1767829417064,1767829417.061953,577.0,117692.0,57324.0
1767829417064,1767829417.0619688,578.0,117703.0,57327.0
1767829417064,1767829417.0619843,578.0,117694.0,57331.0
1767829417153,1767829417.1519063,577.0,117720.0,57308.0
1767829417153,1767829417.1519217,577.0,117661.0,57323.0
1767829417153,1767829417.1519375,577.0,117644.0,57317.0
1767829417153,1767829417.151953,577.0,117633.0,57303.0
1767829417153,1767829417.1519687,576.0,117685.0,57340.0
1767829417153,1767829417.1519842,575.0,117642.0,57313.0
1767829417243,1767829417.2419064,577.0,117652.0,57315.0
1767829417243,1767829417.241922,576.0,117639.0,57313.0
1767829417243,1767829417.2419376,577.0,117696.0,57308.0
1767829417243,1767829417.2419531,578.0,117667.0,57311.0
1767829417243,1767829417.2419689,579.0,117758.0,57318.0
1767829417243,1767829417.2419844,576.0,117669.0,57315.0
1767829417347,1767829417.3319063,577.0,117693.0,57336.0
1767829417347,1767829417.3319218,577.0,117531.0,57343.0
1767829417347,1767829417.3319376,578.0,117691.0,57303.0
1767829417347,1767829417.331953,576.0,117735.0,57323.0
1767829417347,1767829417.3319688,577.0,117636.0,57314.0
1767829417347,1767829417.3319843,576.0,117722.0,57334.0
1767829417439,1767829417.4369063,577.0,117713.0,57329.0
1767829417439,1767829417.4369218,575.0,117729.0,57311.0
1767829417439,1767829417.4369376,577.0,117789.0,57350.0
1767829417439,1767829417.436953,577.0,117613.0,57337.0
1767829417439,1767829417.4369688,576.0,117653.0,57325.0
1767829417439,1767829417.4369843,576.0,117697.0,57333.0
1767829417529,1767829417.5269063,577.0,117677.0,57315.0
1767829417529,1767829417.5269217,575.0,117655.0,57328.0
1767829417529,1767829417.5269375,576.0,117710.0,57351.0
1767829417529,1767829417.526953,578.0,117731.0,57326.0
1767829417529,1767829417.5269687,576.0,117766.0,57360.0
1767829417529,1767829417.5269842,578.0,117781.0,57352.0
1767829417621,1767829417.6169064,576.0,117814.0,57375.0
1767829417621,1767829417.616922,578.0,117831.0,57340.0
1767829417621,1767829417.6169376,577.0,117780.0,57361.0
1767829417621,1767829417.6169531,577.0,117805.0,57362.0
1767829417621,1767829417.6169689,579.0,117880.0,57373.0
1767829417621,1767829417.6169844,577.0,117826.0,57358.0
1767829417710,1767829417.7079062,576.0,117709.0,57326.0
1767829417710,1767829417.7079217,577.0,117791.0,57387.0
1767829417710,1767829417.7079375,576.0,117829.0,57320.0
1767829417710,1767829417.707953,576.0,117813.0,57298.0
1767829417710,1767829417.7079687,576.0,117672.0,57328.0
1767829417710,1767829417.7079842,576.0,117853.0,57331.0
1767829417817,1767829417.8119063,575.0,117686.0,57326.0
1767829417817,1767829417.8119218,575.0,117651.0,57300.0
1767829417817,1767829417.8119376,577.0,117748.0,57326.0
1767829417817,1767829417.811953,576.0,117625.0,57297.0
1767829417817,1767829417.8119688,576.0,117689.0,57347.0
1767829417817,1767829417.8119843,577.0,117694.0,57313.0
1767829417906,1767829417.9039063,576.0,117605.0,57305.0
1767829417906,1767829417.9039218,576.0,117670.0,57319.0
1767829417906,1767829417.9039376,576.0,117586.0,57317.0
1767829417906,1767829417.903953,578.0,117666.0,57290.0
1767829417906,1767829417.9039688,576.0,117649.0,57267.0
1767829417906,1767829417.9039843,575.0,117722.0,57315.0
1767829418000,1767829417.9929063,579.0,117691.0,57295.0
1767829418000,1767829417.9929218,576.0,117671.0,57339.0
1767829418000,1767829417.9929376,578.0,117673.0,57316.0
1767829418000,1767829417.992953,577.0,117606.0,57288.0
1767829418000,1767829417.9929688,579.0,117711.0,57310.0
1767829418000,1767829417.9929843,577.0,117711.0,57344.0
1767829418098,1767829418.0819063,575.0,117566.0,57302.0
1767829418098,1767829418.0819218,576.0,117666.0,57310.0
1767829418098,1767829418.0819376,577.0,117576.0,57306.0
1767829418098,1767829418.081953,578.0,117677.0,57296.0
1767829418098,1767829418.0819688,576.0,117646.0,57299.0
1767829418098,1767829418.0819843,578.0,117607.0,57305.0
1767829418191,1767829418.1869063,576.0,117677.0,57297.0
1767829418191,1767829418.1869218,576.0,117696.0,57324.0
1767829418191,1767829418.1869376,576.0,117618.0,57286.0
1767829418191,1767829418.186953,577.0,117687.0,57301.0
1767829418191,1767829418.1869688,578.0,117736.0,57274.0
1767829418191,1767829418.1869843,576.0,117673.0,57312.0
1767829418281,1767829418.2779064,578.0,117656.0,57327.0
1767829418281,1767829418.277922,577.0,117618.0,57328.0
1767829418281,1767829418.2779377,578.0,117719.0,57307.0
1767829418281,1767829418.2779531,578.0,117718.0,57338.0
1767829418281,1767829418.277969,576.0,117619.0,57336.0
1767829418281,1767829418.2779844,578.0,117747.0,57302.0
1767829418369,1767829418.3669064,578.0,117767.0,57328.0
1767829418369,1767829418.366922,579.0,117776.0,57321.0
1767829418369,1767829418.3669376,578.0,117687.0,57329.0
1767829418369,1767829418.3669531,577.0,117662.0,57317.0
1767829418369,1767829418.3669689,578.0,117766.0,57303.0
1767829418369,1767829418.3669844,578.0,117669.0,57325.0
1767829418462,1767829418.4569063,577.0,117813.0,57360.0
1767829418463,1767829418.4569218,577.0,117731.0,57307.0
1767829418463,1767829418.4569376,578.0,117769.0,57346.0
1767829418463,1767829418.456953,577.0,117742.0,57317.0
1767829418463,1767829418.4569688,578.0,117744.0,57343.0
1767829418463,1767829418.4569843,578.0,117746.0,57317.0
1767829418565,1767829418.5619063,577.0,117768.0,57314.0
1767829418565,1767829418.5619218,580.0,117836.0,57333.0
1767829418565,1767829418.5619376,578.0,117638.0,57330.0
1767829418565,1767829418.561953,577.0,117789.0,57319.0
1767829418565,1767829418.5619688,578.0,117751.0,57297.0
1767829418565,1767829418.5619843,577.0,117664.0,57331.0
1767829418670,1767829418.6669064,578.0,117592.0,57308.0
1767829418670,1767829418.6669219,577.0,117691.0,57327.0
1767829418670,1767829418.6669376,579.0,117764.0,57308.0
1767829418670,1767829418.666953,578.0,117686.0,57313.0
1767829418670,1767829418.6669688,576.0,117691.0,57327.0
1767829418670,1767829418.6669843,577.0,117697.0,57291.0
1767829418761,1767829418.7569063,576.0,117590.0,57285.0
1767829418761,1767829418.7569218,577.0,117526.0,57277.0
1767829418761,1767829418.7569375,577.0,117607.0,57270.0
1767829418761,1767829418.756953,577.0,117664.0,57289.0
1767829418761,1767829418.7569687,574.0,117619.0,57281.0
1767829418761,1767829418.7569842,576.0,117634.0,57270.0
1767829418836,1767829418.8319063,576.0,117618.0,57309.0
1767829418836,1767829418.8319218,578.0,117756.0,57322.0
1767829418836,1767829418.8319376,577.0,117597.0,57284.0
1767829418836,1767829418.831953,577.0,117555.0,57277.0
1767829418836,1767829418.8319688,577.0,117647.0,57286.0
1767829418836,1767829418.8319843,577.0,117609.0,57318.0
1767829418939,1767829418.9369063,576.0,117626.0,57281.0
1767829418939,1767829418.9369218,577.0,117615.0,57279.0
1767829418939,1767829418.9369376,575.0,117632.0,57296.0
1767829418939,1767829418.936953,577.0,117641.0,57275.0
1767829418939,1767829418.9369688,577.0,117610.0,57259.0
1767829418939,1767829418.9369843,576.0,117589.0,57297.0
1767829419030,1767829419.0269063,577.0,117617.0,57289.0
1767829419030,1767829419.0269217,576.0,117560.0,57262.0
1767829419030,1767829419.0269375,576.0,117658.0,57291.0
1767829419030,1767829419.026953,577.0,117580.0,57270.0
1767829419030,1767829419.0269687,576.0,117521.0,57289.0
1767829419030,1767829419.0269842,576.0,117568.0,57304.0
1767829419120,1767829419.1169064,578.0,117669.0,57261.0
1767829419120,1767829419.116922,577.0,117679.0,57316.0
1767829419120,1767829419.1169376,577.0,117693.0,57292.0
1767829419120,1767829419.1169531,576.0,117543.0,57272.0
1767829419120,1767829419.1169689,577.0,117675.0,57275.0
1767829419120,1767829419.1169844,577.0,117654.0,57285.0
1767829419210,1767829419.2069063,578.0,117801.0,57321.0
1767829419210,1767829419.2069218,576.0,117649.0,57303.0
1767829419210,1767829419.2069376,577.0,117688.0,57324.0
1767829419210,1767829419.206953,575.0,117706.0,57316.0
1767829419210,1767829419.2069688,576.0,117699.0,57297.0
1767829419210,1767829419.2069843,577.0,117745.0,57328.0
1767829419314,1767829419.3119063,577.0,117764.0,57308.0
1767829419314,1767829419.3119218,576.0,117632.0,57330.0
1767829419314,1767829419.3119376,576.0,117721.0,57299.0
1767829419314,1767829419.311953,577.0,117716.0,57315.0
1767829419314,1767829419.3119688,577.0,117641.0,57287.0
1767829419314,1767829419.3119843,577.0,117620.0,57295.0
1767829419405,1767829419.4019063,577.0,117725.0,57306.0
1767829419406,1767829419.4019217,579.0,117758.0,57326.0
1767829419406,1767829419.4019375,578.0,117797.0,57349.0
1767829419406,1767829419.401953,577.0,117794.0,57339.0
1767829419406,1767829419.4019687,579.0,117811.0,57340.0
1767829419406,1767829419.4019842,578.0,117756.0,57310.0
1767829419493,1767829419.4919064,576.0,117676.0,57278.0
1767829419493,1767829419.491922,576.0,117692.0,57307.0
1767829419493,1767829419.4919376,577.0,117738.0,57282.0
1767829419493,1767829419.4919531,576.0,117686.0,57280.0
1767829419493,1767829419.4919689,575.0,117655.0,57290.0
1767829419493,1767829419.4919844,576.0,117751.0,57272.0
1767829419588,1767829419.5829062,577.0,117600.0,57259.0
1767829419588,1767829419.5829217,576.0,117654.0,57263.0
1767829419588,1767829419.5829375,577.0,117657.0,57249.0
1767829419588,1767829419.582953,577.0,117591.0,57276.0
1767829419588,1767829419.5829687,575.0,117546.0,57270.0
1767829419588,1767829419.5829842,576.0,117619.0,57235.0
1767829419688,1767829419.6869063,576.0,117544.0,57241.0
1767829419688,1767829419.6869218,577.0,117717.0,57287.0
1767829419688,1767829419.6869376,576.0,117552.0,57284.0
1767829419688,1767829419.686953,577.0,117543.0,57248.0
1767829419688,1767829419.6869688,575.0,117469.0,57268.0
1767829419688,1767829419.6869843,577.0,117513.0,57270.0
1767829419781,1767829419.7769063,575.0,117596.0,57266.0
1767829419781,1767829419.7769217,575.0,117503.0,57240.0
1767829419781,1767829419.7769375,576.0,117582.0,57272.0
1767829419781,1767829419.776953,574.0,117451.0,57260.0
1767829419781,1767829419.7769687,575.0,117489.0,57236.0
1767829419781,1767829419.7769842,575.0,117565.0,57256.0
1767829419871,1767829419.8679063,574.0,117548.0,57289.0
1767829419871,1767829419.8679218,576.0,117562.0,57239.0
1767829419871,1767829419.8679376,577.0,117596.0,57235.0
1767829419871,1767829419.867953,577.0,117608.0,57264.0
1767829419871,1767829419.8679688,576.0,117458.0,57265.0
1767829419871,1767829419.8679843,576.0,117545.0,57265.0
1767829419962,1767829419.9569063,575.0,117591.0,57264.0
1767829419962,1767829419.9569218,574.0,117545.0,57276.0
1767829419962,1767829419.9569376,575.0,117614.0,57229.0
1767829419962,1767829419.956953,577.0,117635.0,57256.0
1767829419962,1767829419.9569688,577.0,117622.0,57269.0
1767829419962,1767829419.9569843,576.0,117563.0,57251.0
1767829420064,1767829420.0619063,576.0,117521.0,57278.0
1767829420064,1767829420.0619218,578.0,117731.0,57266.0
1767829420064,1767829420.0619376,578.0,117690.0,57257.0
1767829420064,1767829420.061953,577.0,117581.0,57263.0
1767829420064,1767829420.0619688,579.0,117652.0,57239.0
1767829420064,1767829420.0619843,578.0,117602.0,57268.0
1767829420155,1767829420.1519063,578.0,117653.0,57268.0
1767829420155,1767829420.1519217,578.0,117748.0,57281.0
1767829420155,1767829420.1519375,578.0,117674.0,57264.0
1767829420155,1767829420.151953,578.0,117626.0,57270.0
1767829420155,1767829420.1519687,579.0,117760.0,57269.0
1767829420155,1767829420.1519842,579.0,117753.0,57283.0
1767829420248,1767829420.2459064,578.0,117848.0,57336.0
1767829420248,1767829420.2459219,576.0,117594.0,57302.0
1767829420248,1767829420.2459376,577.0,117727.0,57301.0
1767829420248,1767829420.245953,579.0,117650.0,57288.0
1767829420248,1767829420.2459688,578.0,117761.0,57253.0
1767829420248,1767829420.2459843,577.0,117737.0,57273.0
1767829420337,1767829420.3319063,575.0,117591.0,57285.0
1767829420337,1767829420.3319218,576.0,117563.0,57246.0
1767829420337,1767829420.3319376,577.0,117656.0,57272.0
1767829420337,1767829420.331953,577.0,117614.0,57242.0
1767829420337,1767829420.3319688,578.0,117627.0,57261.0
1767829420337,1767829420.3319843,580.0,117712.0,57243.0
1767829420439,1767829420.4369063,579.0,117552.0,57267.0
1767829420439,1767829420.4369218,578.0,117670.0,57233.0
1767829420439,1767829420.4369376,577.0,117543.0,57220.0
1767829420439,1767829420.436953,577.0,117626.0,57270.0
1767829420439,1767829420.4369688,578.0,117601.0,57240.0
1767829420439,1767829420.4369843,578.0,117590.0,57257.0
1767829420545,1767829420.5419064,578.0,117656.0,57224.0
1767829420545,1767829420.5419219,576.0,117600.0,57223.0
1767829420545,1767829420.5419376,577.0,117558.0,57245.0
1767829420545,1767829420.541953,578.0,117545.0,57252.0
1767829420545,1767829420.5419688,577.0,117455.0,57221.0
1767829420545,1767829420.5419843,578.0,117609.0,57259.0
1767829420619,1767829420.6169064,577.0,117583.0,57225.0
1767829420619,1767829420.616922,576.0,117535.0,57211.0
1767829420619,1767829420.6169376,576.0,117550.0,57243.0
1767829420619,1767829420.6169531,577.0,117520.0,57257.0
1767829420619,1767829420.6169689,576.0,117450.0,57246.0
1767829420619,1767829420.6169844,577.0,117547.0,57217.0
1767829420710,1767829420.7069063,576.0,117615.0,57224.0
1767829420710,1767829420.7069218,579.0,117620.0,57212.0
1767829420710,1767829420.7069376,576.0,117496.0,57264.0
1767829420710,1767829420.706953,576.0,117562.0,57235.0
1767829420710,1767829420.7069688,578.0,117642.0,57254.0
1767829420710,1767829420.7069843,575.0,117493.0,57219.0
1767829420815,1767829420.8119063,577.0,117703.0,57279.0
1767829420815,1767829420.8119218,577.0,117571.0,57265.0
1767829420815,1767829420.8119376,576.0,117568.0,57251.0
1767829420815,1767829420.811953,577.0,117610.0,57256.0
1767829420815,1767829420.8119688,579.0,117669.0,57214.0
1767829420815,1767829420.8119843,579.0,117576.0,57256.0
1767829420918,1767829420.9019063,577.0,117631.0,57262.0
1767829420918,1767829420.9019217,577.0,117584.0,57250.0
1767829420918,1767829420.9019375,577.0,117596.0,57266.0
1767829420918,1767829420.901953,578.0,117644.0,57237.0
1767829420918,1767829420.9019687,578.0,117696.0,57287.0
1767829420918,1767829420.9019842,578.0,117622.0,57253.0
1767829420995,1767829420.9919064,578.0,117634.0,57238.0
1767829420995,1767829420.991922,577.0,117681.0,57284.0
1767829420995,1767829420.9919376,577.0,117658.0,57268.0
1767829420995,1767829420.9919531,579.0,117698.0,57261.0
1767829420995,1767829420.9919689,581.0,117699.0,57252.0
1767829420995,1767829420.9919844,578.0,117751.0,57272.0
1767829421086,1767829421.0819063,577.0,117557.0,57264.0
1767829421086,1767829421.0819218,581.0,117782.0,57253.0
1767829421086,1767829421.0819376,579.0,117632.0,57271.0
1767829421086,1767829421.081953,580.0,117585.0,57258.0
1767829421086,1767829421.0819688,579.0,117675.0,57228.0
1767829421086,1767829421.0819843,577.0,117533.0,57248.0
1767829421189,1767829421.1869063,578.0,117607.0,57178.0
1767829421189,1767829421.1869218,579.0,117590.0,57223.0
1767829421189,1767829421.1869376,578.0,117612.0,57244.0
1767829421189,1767829421.186953,578.0,117521.0,57214.0
1767829421189,1767829421.1869688,579.0,117520.0,57211.0
1767829421189,1767829421.1869843,581.0,117607.0,57231.0
1767829421280,1767829421.2769063,578.0,117593.0,57221.0
1767829421280,1767829421.2769217,577.0,117557.0,57235.0
1767829421280,1767829421.2769375,579.0,117491.0,57203.0
1767829421280,1767829421.276953,577.0,117490.0,57218.0
1767829421280,1767829421.2769687,578.0,117521.0,57188.0
1767829421280,1767829421.2769842,578.0,117473.0,57214.0
1767829421370,1767829421.3669064,578.0,117432.0,57195.0
1767829421370,1767829421.366922,576.0,117355.0,57209.0
1767829421370,1767829421.3669376,578.0,117471.0,57212.0
1767829421370,1767829421.3669531,578.0,117469.0,57204.0
1767829421370,1767829421.3669689,578.0,117582.0,57210.0
1767829421370,1767829421.3669844,576.0,117482.0,57184.0
1767829421462,1767829421.4569063,576.0,117472.0,57225.0
1767829421462,1767829421.4569218,578.0,117428.0,57200.0
1767829421462,1767829421.4569376,577.0,117482.0,57228.0
1767829421462,1767829421.456953,578.0,117584.0,57218.0
1767829421462,1767829421.4569688,577.0,117381.0,57196.0
1767829421462,1767829421.4569843,577.0,117526.0,57204.0
1767829421581,1767829421.5769062,578.0,117607.0,57225.0
1767829421581,1767829421.5769217,577.0,117479.0,57252.0
1767829421581,1767829421.5769374,578.0,117526.0,57195.0
1767829421581,1767829421.576953,580.0,117546.0,57212.0
1767829421581,1767829421.5769687,579.0,117488.0,57208.0
1767829421581,1767829421.5769842,579.0,117522.0,57203.0
1767829421657,1767829421.6519063,576.0,117508.0,57187.0
1767829421657,1767829421.6519217,576.0,117402.0,57191.0
1767829421657,1767829421.6519375,577.0,117434.0,57203.0
1767829421657,1767829421.651953,578.0,117548.0,57195.0
1767829421657,1767829421.6519687,580.0,117636.0,57210.0
1767829421657,1767829421.6519842,577.0,117506.0,57218.0
1767829421745,1767829421.7419064,578.0,117505.0,57193.0
1767829421745,1767829421.741922,577.0,117498.0,57211.0
1767829421745,1767829421.7419376,578.0,117569.0,57245.0
1767829421745,1767829421.7419531,578.0,117530.0,57214.0
1767829421745,1767829421.7419689,579.0,117494.0,57192.0
1767829421745,1767829421.7419844,578.0,117571.0,57231.0
1767829421835,1767829421.8319063,579.0,117595.0,57211.0
1767829421835,1767829421.8319218,579.0,117445.0,57209.0
1767829421835,1767829421.8319376,577.0,117635.0,57246.0
1767829421835,1767829421.831953,579.0,117623.0,57218.0
1767829421835,1767829421.8319688,578.0,117588.0,57264.0
1767829421835,1767829421.8319843,577.0,117550.0,57235.0
1767829421927,1767829421.9249063,579.0,117554.0,57205.0
1767829421927,1767829421.9249218,578.0,117619.0,57203.0
1767829421927,1767829421.9249375,577.0,117597.0,57217.0
1767829421927,1767829421.924953,578.0,117568.0,57172.0
1767829421927,1767829421.9249687,579.0,117528.0,57186.0
1767829421927,1767829421.9249842,577.0,117478.0,57193.0
1767829422029,1767829422.0269063,577.0,117536.0,57185.0
1767829422029,1767829422.0269217,576.0,117427.0,57186.0
1767829422029,1767829422.0269375,577.0,117455.0,57176.0
1767829422029,1767829422.026953,578.0,117513.0,57195.0
1767829422029,1767829422.0269687,575.0,117361.0,57184.0
1767829422029,1767829422.0269842,577.0,117491.0,57169.0
1767829422133,1767829422.1169064,575.0,117378.0,57192.0
1767829422133,1767829422.116922,578.0,117543.0,57179.0
1767829422133,1767829422.1169376,577.0,117412.0,57171.0
1767829422133,1767829422.1169531,577.0,117360.0,57178.0
1767829422133,1767829422.1169689,578.0,117376.0,57152.0
1767829422133,1767829422.1169844,578.0,117461.0,57181.0
1767829422214,1767829422.2079062,576.0,117259.0,57143.0
1767829422214,1767829422.2079217,578.0,117465.0,57137.0
1767829422214,1767829422.2079375,578.0,117339.0,57170.0
1767829422214,1767829422.207953,578.0,117378.0,57168.0
1767829422214,1767829422.2079687,578.0,117434.0,57173.0
1767829422214,1767829422.2079842,577.0,117343.0,57162.0
1767829422314,1767829422.3119063,577.0,117398.0,57153.0
1767829422314,1767829422.3119218,578.0,117444.0,57133.0
1767829422314,1767829422.3119376,575.0,117390.0,57151.0
1767829422314,1767829422.311953,576.0,117338.0,57180.0
1767829422314,1767829422.3119688,577.0,117408.0,57160.0
1767829422314,1767829422.3119843,575.0,117336.0,57152.0
1767829422407,1767829422.4019063,576.0,117289.0,57155.0
1767829422407,1767829422.4019217,575.0,117252.0,57140.0
1767829422407,1767829422.4019375,576.0,117365.0,57127.0
1767829422407,1767829422.401953,576.0,117324.0,57124.0
1767829422407,1767829422.4019687,578.0,117448.0,57137.0
1767829422407,1767829422.4019842,575.0,117386.0,57178.0
1767829422495,1767829422.4929063,575.0,117430.0,57169.0
1767829422495,1767829422.4929218,577.0,117437.0,57152.0
1767829422495,1767829422.4929376,579.0,117401.0,57128.0
1767829422495,1767829422.492953,577.0,117403.0,57158.0
1767829422495,1767829422.4929688,578.0,117521.0,57186.0
1767829422495,1767829422.4929843,577.0,117418.0,57160.0
1767829422600,1767829422.5969062,576.0,117362.0,57156.0
1767829422600,1767829422.5969217,577.0,117356.0,57163.0
1767829422600,1767829422.5969374,576.0,117431.0,57181.0
1767829422600,1767829422.596953,577.0,117473.0,57169.0
1767829422600,1767829422.5969687,577.0,117394.0,57156.0
1767829422600,1767829422.5969841,578.0,117408.0,57156.0
1767829422689,1767829422.6869063,579.0,117578.0,57166.0
1767829422689,1767829422.6869218,576.0,117362.0,57176.0
1767829422689,1767829422.6869376,577.0,117493.0,57198.0
1767829422689,1767829422.686953,576.0,117469.0,57168.0
1767829422689,1767829422.6869688,578.0,117547.0,57156.0
1767829422689,1767829422.6869843,576.0,117507.0,57171.0
1767829422796,1767829422.7929063,577.0,117480.0,57184.0
1767829422796,1767829422.7929218,576.0,117375.0,57132.0
1767829422796,1767829422.7929375,576.0,117485.0,57128.0
1767829422796,1767829422.792953,578.0,117462.0,57134.0
1767829422796,1767829422.7929688,577.0,117403.0,57154.0
1767829422796,1767829422.7929842,576.0,117384.0,57129.0
1767829422869,1767829422.8669064,577.0,117452.0,57141.0
1767829422869,1767829422.866922,577.0,117395.0,57140.0
1767829422869,1767829422.8669376,576.0,117314.0,57120.0
1767829422869,1767829422.8669531,576.0,117275.0,57107.0
1767829422869,1767829422.8669689,577.0,117394.0,57099.0
1767829422869,1767829422.8669844,577.0,117331.0,57100.0
1767829422975,1767829422.9569063,577.0,117347.0,57134.0
1767829422975,1767829422.9569218,574.0,117085.0,57076.0
1767829422975,1767829422.9569376,575.0,117308.0,57110.0
1767829422975,1767829422.956953,576.0,117271.0,57094.0
1767829422975,1767829422.9569688,575.0,117334.0,57096.0
1767829422975,1767829422.9569843,576.0,117280.0,57066.0
1767829423064,1767829423.0619063,575.0,117109.0,57107.0
1767829423064,1767829423.0619218,577.0,117311.0,57104.0
1767829423064,1767829423.0619376,575.0,117252.0,57094.0
1767829423064,1767829423.061953,578.0,117275.0,57092.0
1767829423064,1767829423.0619688,576.0,117277.0,57100.0
1767829423064,1767829423.0619843,576.0,117230.0,57080.0
1767829423158,1767829423.1519063,578.0,117346.0,57082.0
1767829423158,1767829423.1519217,577.0,117321.0,57087.0
1767829423158,1767829423.1519375,577.0,117196.0,57090.0
1767829423158,1767829423.151953,575.0,117144.0,57097.0
1767829423158,1767829423.1519687,575.0,117141.0,57091.0
1767829423158,1767829423.1519842,576.0,117257.0,57074.0
1767829423245,1767829423.2419064,576.0,117282.0,57092.0
1767829423245,1767829423.241922,576.0,117239.0,57104.0
1767829423245,1767829423.2419376,575.0,117259.0,57096.0
1767829423245,1767829423.2419531,574.0,117263.0,57084.0
1767829423245,1767829423.2419689,575.0,117247.0,57070.0
1767829423245,1767829423.2419844,575.0,117220.0,57084.0
1767829423350,1767829423.3469062,577.0,117225.0,57075.0
1767829423350,1767829423.3469217,576.0,117291.0,57118.0
1767829423350,1767829423.3469374,576.0,117213.0,57076.0
1767829423350,1767829423.346953,578.0,117301.0,57082.0
1767829423350,1767829423.3469687,576.0,117267.0,57066.0
1767829423351,1767829423.3469841,576.0,117301.0,57107.0
1767829423439,1767829423.4369063,576.0,117220.0,57101.0
1767829423439,1767829423.4369218,576.0,117308.0,57106.0
1767829423439,1767829423.4369376,577.0,117308.0,57107.0
1767829423439,1767829423.436953,576.0,117351.0,57095.0
1767829423439,1767829423.4369688,578.0,117349.0,57075.0
1767829423439,1767829423.4369843,577.0,117328.0,57107.0
1767829423530,1767829423.5269063,578.0,117385.0,57096.0
1767829423533,1767829423.5269217,576.0,117282.0,57124.0
1767829423533,1767829423.5269375,577.0,117300.0,57122.0
1767829423533,1767829423.526953,577.0,117329.0,57116.0
1767829423533,1767829423.5269687,578.0,117296.0,57095.0
1767829423533,1767829423.5269842,578.0,117390.0,57090.0
1767829423618,1767829423.6169064,579.0,117446.0,57153.0
1767829423618,1767829423.616922,578.0,117350.0,57140.0
1767829423618,1767829423.6169376,578.0,117391.0,57141.0
1767829423618,1767829423.6169531,576.0,117320.0,57134.0
1767829423618,1767829423.6169689,577.0,117332.0,57086.0
1767829423618,1767829423.6169844,578.0,117275.0,57084.0
1767829423709,1767829423.7069063,580.0,117406.0,57075.0
1767829423709,1767829423.7069218,577.0,117370.0,57088.0
1767829423709,1767829423.7069376,577.0,117334.0,57084.0
1767829423709,1767829423.706953,575.0,117230.0,57051.0
1767829423709,1767829423.7069688,577.0,117254.0,57087.0
1767829423709,1767829423.7069843,577.0,117325.0,57075.0
1767829423803,1767829423.8009064,576.0,117277.0,57055.0
1767829423803,1767829423.800922,578.0,117261.0,57065.0
1767829423803,1767829423.8009377,577.0,117246.0,57077.0
1767829423803,1767829423.8009531,577.0,117229.0,57037.0
1767829423803,1767829423.800969,579.0,117226.0,57046.0
1767829423803,1767829423.8009844,577.0,117119.0,57048.0
1767829423905,1767829423.9019063,577.0,117262.0,57086.0
1767829423905,1767829423.9019217,577.0,117107.0,57062.0
1767829423905,1767829423.9019375,577.0,117103.0,57063.0
1767829423905,1767829423.901953,576.0,117123.0,57028.0
1767829423905,1767829423.9019687,578.0,117265.0,57030.0
1767829423905,1767829423.9019842,576.0,117140.0,57071.0
1767829424009,1767829423.9919064,577.0,117181.0,57023.0
1767829424009,1767829423.991922,579.0,117161.0,57037.0
1767829424009,1767829423.9919376,577.0,117146.0,57021.0
1767829424009,1767829423.9919531,577.0,117183.0,57056.0
1767829424009,1767829423.9919689,578.0,117226.0,57068.0
1767829424009,1767829423.9919844,577.0,117172.0,57051.0
1767829424087,1767829424.0829062,576.0,117096.0,57020.0
1767829424087,1767829424.0829217,577.0,117151.0,57049.0
1767829424087,1767829424.0829375,577.0,117159.0,57029.0
1767829424087,1767829424.082953,577.0,117222.0,57054.0
1767829424087,1767829424.0829687,577.0,117209.0,57052.0
1767829424087,1767829424.0829842,578.0,117159.0,57042.0
1767829424189,1767829424.1869063,577.0,117083.0,57021.0
1767829424189,1767829424.1869218,576.0,117223.0,57035.0
1767829424189,1767829424.1869376,575.0,117082.0,57050.0
1767829424189,1767829424.186953,575.0,117259.0,57056.0
1767829424189,1767829424.1869688,576.0,117216.0,57055.0
1767829424189,1767829424.1869843,576.0,117208.0,57052.0
1767829424280,1767829424.2769063,577.0,117266.0,57054.0
1767829424280,1767829424.2769217,577.0,117175.0,57043.0
1767829424281,1767829424.2769375,577.0,117215.0,57062.0
1767829424281,1767829424.276953,577.0,117242.0,57071.0
1767829424281,1767829424.2769687,574.0,117116.0,57055.0
1767829424281,1767829424.2769842,575.0,117250.0,57079.0
1767829424369,1767829424.3669064,576.0,117226.0,57052.0
1767829424369,1767829424.366922,577.0,117285.0,57047.0
1767829424369,1767829424.3669376,577.0,117223.0,57055.0
1767829424369,1767829424.3669531,577.0,117292.0,57061.0
1767829424369,1767829424.3669689,577.0,117306.0,57079.0
1767829424369,1767829424.3669844,577.0,117240.0,57076.0
1767829424474,1767829424.4719062,575.0,117354.0,57075.0
1767829424474,1767829424.4719217,576.0,117225.0,57101.0
1767829424474,1767829424.4719374,577.0,117250.0,57067.0
1767829424474,1767829424.471953,578.0,117289.0,57058.0
1767829424474,1767829424.4719687,577.0,117340.0,57056.0
1767829424474,1767829424.4719841,579.0,117257.0,57034.0
1767829424563,1767829424.5619063,577.0,117197.0,57043.0
1767829424563,1767829424.5619218,576.0,117171.0,57060.0
1767829424563,1767829424.5619376,577.0,117166.0,57020.0
1767829424563,1767829424.561953,576.0,117179.0,57038.0
1767829424563,1767829424.5619688,576.0,117100.0,57026.0
1767829424563,1767829424.5619843,578.0,117117.0,57020.0
1767829424672,1767829424.6669064,578.0,117224.0,57028.0
1767829424672,1767829424.6669219,578.0,117136.0,57014.0
1767829424672,1767829424.6669376,577.0,117113.0,57024.0
1767829424672,1767829424.666953,577.0,117108.0,57006.0
1767829424672,1767829424.6669688,577.0,117178.0,57009.0
1767829424672,1767829424.6669843,577.0,117083.0,57010.0
1767829424744,1767829424.7419064,576.0,117040.0,56990.0
1767829424744,1767829424.741922,576.0,117137.0,57019.0
1767829424744,1767829424.7419376,577.0,117043.0,57003.0
1767829424744,1767829424.7419531,577.0,117047.0,57003.0
1767829424744,1767829424.7419689,578.0,117130.0,56989.0
1767829424744,1767829424.7419844,575.0,117075.0,57019.0
1767829424835,1767829424.8319063,576.0,116920.0,56981.0
1767829424835,1767829424.8319218,577.0,117152.0,57003.0
1767829424835,1767829424.8319376,579.0,117104.0,56995.0
1767829424835,1767829424.831953,578.0,117060.0,56983.0
1767829424835,1767829424.8319688,575.0,117043.0,57035.0
1767829424835,1767829424.8319843,577.0,116992.0,57018.0
1767829424939,1767829424.9369063,576.0,117069.0,57009.0
1767829424939,1767829424.9369218,576.0,116999.0,57010.0
1767829424939,1767829424.9369376,577.0,117024.0,56992.0
1767829424939,1767829424.936953,578.0,117049.0,57014.0
1767829424939,1767829424.9369688,577.0,117017.0,57037.0
1767829424939,1767829424.9369843,578.0,117103.0,57016.0
1767829425033,1767829425.0269063,577.0,117091.0,57008.0
1767829425033,1767829425.0269217,577.0,117157.0,57039.0
1767829425033,1767829425.0269375,576.0,117060.0,57024.0
1767829425033,1767829425.026953,577.0,117006.0,57043.0
1767829425033,1767829425.0269687,577.0,116930.0,56996.0
1767829425033,1767829425.0269842,577.0,117146.0,57008.0
1767829425120,1767829425.1179063,576.0,117063.0,56999.0
1767829425120,1767829425.1179218,577.0,117141.0,56990.0
1767829425120,1767829425.1179376,577.0,117172.0,57056.0
1767829425120,1767829425.117953,577.0,117085.0,57029.0
1767829425120,1767829425.1179688,578.0,117131.0,57006.0
1767829425120,1767829425.1179843,579.0,117155.0,57023.0
1767829425209,1767829425.2069063,577.0,117130.0,57026.0
1767829425209,1767829425.2069218,577.0,117254.0,57086.0
1767829425209,1767829425.2069376,576.0,117107.0,57021.0
1767829425209,1767829425.206953,579.0,117231.0,57043.0
1767829425209,1767829425.2069688,577.0,117183.0,57040.0
1767829425209,1767829425.2069843,578.0,117226.0,57048.0
1767829425314,1767829425.3119063,575.0,117162.0,57081.0
1767829425314,1767829425.3119218,577.0,117176.0,57051.0
1767829425314,1767829425.3119376,577.0,117119.0,57050.0
1767829425314,1767829425.311953,576.0,117215.0,57054.0
1767829425314,1767829425.3119688,577.0,117012.0,57045.0
1767829425314,1767829425.3119843,576.0,117152.0,57044.0
1767829425405,1767829425.4019063,575.0,117063.0,57024.0
1767829425405,1767829425.4019217,577.0,117088.0,57023.0
1767829425405,1767829425.4019375,578.0,117135.0,57011.0
1767829425405,1767829425.401953,577.0,117081.0,57005.0
1767829425405,1767829425.4019687,576.0,116978.0,57001.0
1767829425405,1767829425.4019842,576.0,117094.0,56990.0
1767829425496,1767829425.4919064,575.0,116964.0,56981.0
1767829425496,1767829425.491922,576.0,116976.0,56972.0
1767829425496,1767829425.4919376,576.0,116931.0,56998.0
1767829425496,1767829425.4919531,576.0,117019.0,57010.0
1767829425496,1767829425.4919689,577.0,116969.0,56973.0
1767829425496,1767829425.4919844,575.0,116959.0,56965.0
1767829425585,1767829425.5819063,577.0,117001.0,56980.0
1767829425585,1767829425.5819218,576.0,117055.0,56974.0
1767829425585,1767829425.5819376,577.0,117012.0,56976.0
1767829425585,1767829425.581953,577.0,116999.0,56975.0
1767829425585,1767829425.5819688,575.0,116979.0,57004.0
1767829425585,1767829425.5819843,578.0,116921.0,56981.0
1767829425689,1767829425.6869063,576.0,116843.0,56968.0
1767829425689,1767829425.6869218,577.0,116873.0,56939.0
1767829425689,1767829425.6869376,576.0,117004.0,56980.0
1767829425689,1767829425.686953,576.0,116948.0,56975.0
1767829425689,1767829425.6869688,576.0,116886.0,56963.0
1767829425689,1767829425.6869843,576.0,116958.0,56986.0
1767829425779,1767829425.7769063,576.0,116789.0,56975.0
1767829425779,1767829425.7769217,576.0,116834.0,56967.0
1767829425779,1767829425.7769375,576.0,116932.0,56962.0
1767829425779,1767829425.776953,575.0,116949.0,56980.0
1767829425779,1767829425.7769687,576.0,116823.0,56958.0
1767829425779,1767829425.7769842,576.0,116978.0,56974.0
1767829425869,1767829425.8669064,577.0,117004.0,57016.0
1767829425869,1767829425.866922,576.0,116927.0,57001.0
1767829425869,1767829425.8669376,576.0,117019.0,56999.0
1767829425869,1767829425.8669531,577.0,116992.0,57014.0
1767829425869,1767829425.8669689,574.0,116926.0,56990.0
1767829425869,1767829425.8669844,575.0,116926.0,56991.0
1767829425959,1767829425.9569063,577.0,117125.0,56983.0
1767829425959,1767829425.9569218,577.0,117136.0,57028.0
1767829425959,1767829425.9569376,576.0,117043.0,57009.0
1767829425959,1767829425.956953,575.0,116984.0,57020.0
1767829425959,1767829425.9569688,577.0,117061.0,56985.0
1767829425959,1767829425.9569843,577.0,117077.0,57024.0
1767829426064,1767829426.0619063,577.0,116974.0,56994.0
1767829426064,1767829426.0619218,577.0,117005.0,57021.0
1767829426064,1767829426.0619376,577.0,117068.0,57009.0
1767829426064,1767829426.061953,576.0,117079.0,57026.0
1767829426064,1767829426.0619688,577.0,117143.0,57044.0
1767829426064,1767829426.0619843,577.0,117083.0,57039.0
1767829426154,1767829426.1519063,578.0,117147.0,57051.0
1767829426154,1767829426.1519217,576.0,117043.0,57008.0
1767829426154,1767829426.1519375,577.0,117100.0,57025.0
1767829426154,1767829426.151953,576.0,117116.0,57022.0
1767829426154,1767829426.1519687,576.0,117178.0,57029.0
1767829426154,1767829426.1519842,575.0,117082.0,57033.0
1767829426243,1767829426.2419064,579.0,117191.0,57039.0
1767829426243,1767829426.241922,577.0,117217.0,57056.0
1767829426243,1767829426.2419376,578.0,117166.0,57050.0
1767829426243,1767829426.2419531,576.0,117118.0,57037.0
1767829426243,1767829426.2419689,575.0,117144.0,57008.0
1767829426243,1767829426.2419844,578.0,117046.0,56999.0
1767829426334,1767829426.3319063,574.0,117057.0,57037.0
1767829426334,1767829426.3319218,575.0,116909.0,57033.0
1767829426334,1767829426.3319376,576.0,117041.0,57008.0
1767829426334,1767829426.331953,577.0,117023.0,57025.0
1767829426334,1767829426.3319688,576.0,117030.0,57006.0
1767829426334,1767829426.3319843,577.0,116919.0,56985.0
1767829426438,1767829426.4229064,577.0,117078.0,56999.0
1767829426438,1767829426.422922,576.0,116999.0,57013.0
1767829426438,1767829426.4229376,576.0,116853.0,56967.0
1767829426438,1767829426.4229531,575.0,116932.0,56999.0
1767829426438,1767829426.4229689,576.0,116887.0,56999.0
1767829426438,1767829426.4229844,578.0,117028.0,57000.0
1767829426529,1767829426.5269063,576.0,116966.0,56988.0
1767829426529,1767829426.5269217,577.0,116985.0,57020.0
1767829426529,1767829426.5269375,576.0,116880.0,56987.0
1767829426529,1767829426.526953,576.0,116919.0,57011.0
1767829426529,1767829426.5269687,576.0,116918.0,56961.0
1767829426529,1767829426.5269842,576.0,116881.0,56996.0
1767829426619,1767829426.6169064,575.0,116877.0,56983.0
1767829426619,1767829426.616922,574.0,116926.0,57006.0
1767829426619,1767829426.6169376,577.0,116930.0,56999.0
1767829426619,1767829426.6169531,576.0,116908.0,56990.0
1767829426619,1767829426.6169689,576.0,116927.0,56981.0
1767829426619,1767829426.6169844,577.0,116890.0,56983.0
1767829426710,1767829426.7079062,574.0,116847.0,57002.0
1767829426710,1767829426.7079217,576.0,116837.0,56990.0
1767829426710,1767829426.7079375,577.0,116844.0,56974.0
1767829426710,1767829426.707953,577.0,116890.0,57006.0
1767829426710,1767829426.7079687,577.0,116944.0,57001.0
1767829426710,1767829426.7079842,576.0,116867.0,56999.0
1767829426815,1767829426.8119063,578.0,116893.0,56986.0
1767829426815,1767829426.8119218,576.0,116870.0,56988.0
1767829426815,1767829426.8119376,577.0,117009.0,57020.0
1767829426815,1767829426.811953,577.0,116977.0,56997.0
1767829426815,1767829426.8119688,575.0,116749.0,57008.0
1767829426815,1767829426.8119843,577.0,116914.0,57023.0
1767829426903,1767829426.8909063,577.0,116994.0,57034.0
1767829426903,1767829426.8909218,577.0,116962.0,57037.0
1767829426903,1767829426.8909376,576.0,117001.0,57031.0
1767829426903,1767829426.890953,577.0,116963.0,57017.0
1767829426903,1767829426.8909688,577.0,117047.0,56986.0
1767829426903,1767829426.8909843,578.0,117028.0,57019.0
1767829426996,1767829426.9929063,576.0,117088.0,57024.0
1767829426996,1767829426.9929218,576.0,117058.0,57044.0
1767829426996,1767829426.9929376,577.0,116979.0,57027.0
1767829426996,1767829426.992953,577.0,116975.0,57052.0
1767829426996,1767829426.9929688,577.0,117071.0,57048.0
1767829426996,1767829426.9929843,579.0,117087.0,57056.0
1767829427084,1767829427.0819063,576.0,116951.0,57057.0
1767829427084,1767829427.0819218,577.0,117042.0,57044.0
1767829427084,1767829427.0819376,578.0,117111.0,57033.0
1767829427084,1767829427.081953,577.0,117003.0,57012.0
1767829427084,1767829427.0819688,577.0,117067.0,57051.0
1767829427084,1767829427.0819843,578.0,117046.0,57018.0
1767829427190,1767829427.1719062,576.0,116873.0,57012.0
1767829427190,1767829427.1719217,577.0,116951.0,57007.0
1767829427190,1767829427.1719375,577.0,116996.0,57009.0
1767829427190,1767829427.171953,575.0,116886.0,57003.0
1767829427190,1767829427.1719687,575.0,116865.0,57014.0
1767829427190,1767829427.1719842,575.0,116861.0,56995.0
1767829427280,1767829427.2769063,578.0,116919.0,56997.0
1767829427280,1767829427.2769217,576.0,116900.0,57026.0
1767829427280,1767829427.2769375,577.0,116811.0,56992.0
1767829427280,1767829427.276953,576.0,116891.0,56988.0
1767829427280,1767829427.2769687,575.0,116801.0,56969.0
1767829427280,1767829427.2769842,576.0,116883.0,57000.0
1767829427369,1767829427.3669064,574.0,116811.0,56980.0
1767829427369,1767829427.366922,576.0,116847.0,57030.0
1767829427369,1767829427.3669376,577.0,116834.0,56976.0
1767829427369,1767829427.3669531,575.0,116789.0,57008.0
1767829427369,1767829427.3669689,576.0,116791.0,56969.0
1767829427369,1767829427.3669844,578.0,116832.0,56980.0
1767829427459,1767829427.4569063,579.0,116911.0,56968.0
1767829427459,1767829427.4569218,578.0,116906.0,57000.0
1767829427459,1767829427.4569376,576.0,116869.0,57025.0
1767829427459,1767829427.456953,576.0,116815.0,56972.0
1767829427459,1767829427.4569688,577.0,116802.0,56991.0
1767829427459,1767829427.4569843,578.0,116935.0,57008.0
1767829427566,1767829427.5619063,576.0,116776.0,56997.0
1767829427568,1767829427.5619218,575.0,116774.0,56985.0
1767829427568,1767829427.5619376,576.0,116882.0,57034.0
1767829427568,1767829427.561953,576.0,116802.0,56964.0
1767829427568,1767829427.5619688,576.0,116901.0,56988.0
1767829427568,1767829427.5619843,575.0,116810.0,57009.0
1767829427655,1767829427.6519063,577.0,116965.0,57003.0
1767829427655,1767829427.6519217,576.0,116930.0,57009.0
1767829427655,1767829427.6519375,576.0,116836.0,57014.0
1767829427655,1767829427.651953,577.0,116893.0,57016.0
1767829427655,1767829427.6519687,576.0,116788.0,56997.0
1767829427655,1767829427.6519842,578.0,116931.0,57008.0
1767829427744,1767829427.7419064,577.0,116897.0,57016.0
1767829427744,1767829427.741922,576.0,116741.0,57033.0
1767829427744,1767829427.7419376,577.0,116946.0,57048.0
1767829427744,1767829427.7419531,576.0,116811.0,57045.0
1767829427744,1767829427.7419689,577.0,116893.0,57031.0
1767829427744,1767829427.7419844,577.0,116849.0,57004.0
1767829427837,1767829427.8319063,578.0,116999.0,57024.0
1767829427837,1767829427.8319218,578.0,116935.0,57029.0
1767829427837,1767829427.8319376,578.0,116971.0,57067.0
1767829427837,1767829427.831953,577.0,117046.0,57050.0
1767829427837,1767829427.8319688,576.0,116967.0,57060.0
1767829427837,1767829427.8319843,577.0,116876.0,57058.0
1767829427939,1767829427.9369063,578.0,116953.0,57035.0
1767829427939,1767829427.9369218,577.0,117048.0,57053.0
1767829427939,1767829427.9369376,576.0,116919.0,57018.0
1767829427939,1767829427.936953,576.0,116939.0,57016.0
1767829427939,1767829427.9369688,577.0,117029.0,57027.0
1767829427939,1767829427.9369843,578.0,116854.0,57021.0
1767829428032,1767829428.0289063,578.0,116914.0,57017.0
1767829428032,1767829428.0289218,576.0,116852.0,57037.0
1767829428032,1767829428.0289376,577.0,116850.0,56983.0
1767829428032,1767829428.028953,576.0,116882.0,56980.0
1767829428032,1767829428.0289688,579.0,116928.0,57008.0
1767829428032,1767829428.0289843,576.0,116778.0,56994.0
1767829428135,1767829428.1319063,577.0,116850.0,57038.0
1767829428135,1767829428.1319218,576.0,116708.0,56987.0
1767829428135,1767829428.1319375,577.0,116821.0,56997.0
1767829428135,1767829428.131953,578.0,116823.0,56980.0
1767829428135,1767829428.1319687,577.0,116765.0,57001.0
1767829428135,1767829428.1319842,578.0,116752.0,56984.0
1767829428211,1767829428.2069063,576.0,116735.0,57024.0
1767829428211,1767829428.2069218,576.0,116577.0,57001.0
1767829428211,1767829428.2069376,578.0,116797.0,57000.0
1767829428211,1767829428.206953,577.0,116737.0,56995.0
1767829428211,1767829428.2069688,578.0,116831.0,56981.0
1767829428211,1767829428.2069843,577.0,116763.0,56974.0
1767829428312,1767829428.2979064,575.0,116679.0,56988.0
1767829428312,1767829428.297922,576.0,116740.0,57006.0
1767829428312,1767829428.2979376,575.0,116695.0,56997.0
1767829428312,1767829428.2979531,576.0,116745.0,56994.0
1767829428312,1767829428.2979689,577.0,116754.0,57006.0
1767829428312,1767829428.2979844,578.0,116798.0,56995.0
1767829428419,1767829428.4169064,577.0,116745.0,56994.0
1767829428419,1767829428.4169219,577.0,116813.0,57022.0
1767829428419,1767829428.4169376,577.0,116747.0,57007.0
1767829428419,1767829428.416953,578.0,116835.0,56974.0
1767829428419,1767829428.4169688,576.0,116734.0,57008.0
1767829428419,1767829428.4169843,578.0,116818.0,57014.0
1767829428496,1767829428.4919064,578.0,116897.0,57014.0
1767829428496,1767829428.491922,578.0,116743.0,57036.0
1767829428496,1767829428.4919376,576.0,116815.0,57018.0
1767829428496,1767829428.4919531,577.0,116790.0,57002.0
1767829428496,1767829428.4919689,578.0,116825.0,57005.0
1767829428496,1767829428.4919844,578.0,116871.0,57023.0
1767829428586,1767829428.5829062,577.0,116878.0,57010.0
1767829428586,1767829428.5829217,577.0,116903.0,57009.0
1767829428586,1767829428.5829375,578.0,116824.0,57022.0
1767829428586,1767829428.582953,578.0,116828.0,57017.0
1767829428586,1767829428.5829687,576.0,116929.0,57063.0
1767829428586,1767829428.5829842,578.0,116879.0,57042.0
1767829428691,1767829428.6719062,578.0,116848.0,57037.0
1767829428691,1767829428.6719217,576.0,116827.0,57064.0
1767829428691,1767829428.6719375,576.0,116909.0,57031.0
1767829428691,1767829428.671953,577.0,116925.0,57032.0
1767829428691,1767829428.6719687,577.0,116826.0,57034.0
1767829428691,1767829428.6719842,579.0,116958.0,57061.0
1767829428779,1767829428.7769063,578.0,116980.0,57064.0
1767829428779,1767829428.7769217,576.0,116984.0,57052.0
1767829428779,1767829428.7769375,576.0,116878.0,57033.0
1767829428779,1767829428.776953,576.0,116868.0,57019.0
1767829428779,1767829428.7769687,578.0,116949.0,57025.0
1767829428779,1767829428.7769842,577.0,116851.0,57039.0
1767829428868,1767829428.8669064,578.0,116856.0,57023.0
1767829428868,1767829428.866922,579.0,116874.0,57015.0
1767829428868,1767829428.8669376,577.0,116781.0,57039.0
1767829428868,1767829428.8669531,578.0,116836.0,57020.0
1767829428868,1767829428.8669689,578.0,116735.0,57028.0
1767829428868,1767829428.8669844,577.0,116794.0,57001.0
1767829428958,1767829428.9569063,579.0,116769.0,56990.0
1767829428958,1767829428.9569218,577.0,116736.0,56992.0
1767829428958,1767829428.9569376,578.0,116700.0,56984.0
1767829428958,1767829428.956953,579.0,116750.0,57000.0
1767829428958,1767829428.9569688,576.0,116702.0,57020.0
1767829428958,1767829428.9569843,578.0,116689.0,56976.0
1767829429050,1767829429.0479064,575.0,116639.0,57019.0
1767829429050,1767829429.047922,577.0,116628.0,56964.0
1767829429050,1767829429.0479376,577.0,116706.0,56991.0
1767829429050,1767829429.0479531,578.0,116643.0,56983.0
1767829429050,1767829429.0479689,578.0,116697.0,56987.0
1767829429050,1767829429.0479844,576.0,116680.0,57000.0
1767829429154,1767829429.1519063,576.0,116631.0,56987.0
1767829429154,1767829429.1519217,575.0,116753.0,56983.0
1767829429154,1767829429.1519375,576.0,116650.0,56997.0
1767829429154,1767829429.151953,576.0,116648.0,57004.0
1767829429154,1767829429.1519687,575.0,116663.0,57016.0
1767829429155,1767829429.1519842,578.0,116670.0,57002.0
1767829429244,1767829429.2419064,575.0,116532.0,56967.0
1767829429244,1767829429.241922,576.0,116498.0,56999.0
1767829429244,1767829429.2419376,575.0,116463.0,56994.0
1767829429244,1767829429.2419531,575.0,116559.0,56972.0
1767829429244,1767829429.2419689,577.0,116727.0,56988.0
1767829429244,1767829429.2419844,577.0,116724.0,57013.0
1767829429336,1767829429.3329062,577.0,116762.0,56993.0
1767829429336,1767829429.3329217,576.0,116740.0,57008.0
1767829429336,1767829429.3329375,577.0,116761.0,57005.0
1767829429336,1767829429.332953,577.0,116759.0,57038.0
1767829429336,1767829429.3329687,577.0,116665.0,57017.0
1767829429336,1767829429.3329842,578.0,116867.0,57051.0
1767829429438,1767829429.4219062,577.0,116723.0,57042.0
1767829429438,1767829429.4219217,575.0,116772.0,57023.0
1767829429438,1767829429.4219375,577.0,116768.0,57024.0
1767829429438,1767829429.421953,579.0,116818.0,57016.0
1767829429438,1767829429.4219687,576.0,116874.0,57042.0
1767829429438,1767829429.4219842,576.0,116757.0,57032.0
1767829429529,1767829429.5269063,578.0,116754.0,57021.0
1767829429529,1767829429.5269217,578.0,116783.0,57068.0
1767829429529,1767829429.5269375,578.0,116851.0,57062.0
1767829429529,1767829429.526953,577.0,116863.0,57068.0
1767829429529,1767829429.5269687,577.0,116773.0,57038.0
1767829429529,1767829429.5269842,577.0,116795.0,57058.0
1767829429620,1767829429.6179063,579.0,116930.0,57066.0
1767829429620,1767829429.6179218,578.0,117008.0,57088.0
1767829429620,1767829429.6179376,578.0,116804.0,57048.0
1767829429620,1767829429.617953,580.0,116914.0,57028.0
1767829429620,1767829429.6179688,579.0,116875.0,57026.0
1767829429620,1767829429.6179843,579.0,116923.0,57041.0
1767829429709,1767829429.7069063,579.0,116756.0,57032.0
1767829429709,1767829429.7069218,579.0,116857.0,57018.0
1767829429709,1767829429.7069376,577.0,116770.0,57030.0
1767829429709,1767829429.706953,577.0,116808.0,57024.0
1767829429709,1767829429.7069688,578.0,116752.0,57021.0
1767829429709,1767829429.7069843,576.0,116649.0,56998.0
1767829429814,1767829429.7969062,578.0,116698.0,56996.0
1767829429814,1767829429.7969217,577.0,116768.0,57005.0
1767829429814,1767829429.7969375,576.0,116697.0,56986.0
1767829429814,1767829429.796953,579.0,116731.0,57008.0
1767829429814,1767829429.7969687,576.0,116548.0,56981.0
1767829429814,1767829429.7969842,578.0,116696.0,57007.0
1767829429909,1767829429.9029064,579.0,116674.0,56985.0
1767829429909,1767829429.902922,577.0,116771.0,57013.0
1767829429909,1767829429.9029377,578.0,116703.0,57015.0
1767829429909,1767829429.9029531,577.0,116625.0,56962.0
1767829429909,1767829429.902969,578.0,116664.0,56971.0
1767829429909,1767829429.9029844,578.0,116698.0,56985.0
1767829429994,1767829429.9919064,578.0,116762.0,57020.0
1767829429994,1767829429.991922,578.0,116693.0,57011.0
1767829429994,1767829429.9919376,578.0,116692.0,57019.0
1767829429994,1767829429.9919531,577.0,116613.0,56979.0
1767829429994,1767829429.9919689,578.0,116764.0,56994.0
1767829429994,1767829429.9919844,578.0,116737.0,57007.0
1767829430099,1767829430.0969062,575.0,116569.0,57012.0
1767829430099,1767829430.0969217,578.0,116648.0,56970.0
1767829430099,1767829430.0969374,579.0,116770.0,57024.0
1767829430099,1767829430.096953,578.0,116698.0,56993.0
1767829430099,1767829430.0969687,578.0,116787.0,57012.0
1767829430099,1767829430.0969841,577.0,116710.0,57015.0
1767829430189,1767829430.1869063,579.0,116688.0,57018.0
1767829430189,1767829430.1869218,576.0,116612.0,57050.0
1767829430189,1767829430.1869376,578.0,116789.0,57017.0
1767829430189,1767829430.186953,578.0,116769.0,57018.0
1767829430189,1767829430.1869688,578.0,116645.0,57014.0
1767829430189,1767829430.1869843,579.0,116787.0,57044.0
1767829430280,1767829430.2769063,578.0,116629.0,57016.0
1767829430280,1767829430.2769217,581.0,116853.0,57027.0
1767829430280,1767829430.2769375,578.0,116796.0,57039.0
1767829430280,1767829430.276953,579.0,116840.0,57051.0
1767829430280,1767829430.2769687,580.0,116950.0,57049.0
1767829430280,1767829430.2769842,578.0,116859.0,57065.0
1767829430369,1767829430.3669064,579.0,116801.0,57044.0
1767829430369,1767829430.366922,576.0,116658.0,57052.0
1767829430369,1767829430.3669376,578.0,116916.0,57047.0
1767829430369,1767829430.3669531,580.0,116876.0,57042.0
1767829430369,1767829430.3669689,580.0,116917.0,57063.0
1767829430369,1767829430.3669844,580.0,116880.0,57056.0
1767829430474,1767829430.4719062,576.0,116732.0,57060.0
1767829430474,1767829430.4719217,578.0,116772.0,57028.0
1767829430474,1767829430.4719374,579.0,116784.0,56998.0
1767829430474,1767829430.471953,578.0,116674.0,57033.0
1767829430474,1767829430.4719687,578.0,116812.0,57003.0
1767829430474,1767829430.4719841,580.0,116747.0,57013.0
1767829430565,1767829430.5619063,579.0,116570.0,57016.0
1767829430565,1767829430.5619218,580.0,116723.0,56997.0
1767829430565,1767829430.5619376,579.0,116656.0,56999.0
1767829430565,1767829430.561953,578.0,116636.0,56988.0
1767829430565,1767829430.5619688,577.0,116608.0,56996.0
1767829430565,1767829430.5619843,580.0,116695.0,57005.0
1767829430670,1767829430.6669064,577.0,116572.0,56991.0
1767829430670,1767829430.6669219,578.0,116584.0,56978.0
1767829430670,1767829430.6669376,578.0,116563.0,56980.0
1767829430670,1767829430.666953,578.0,116632.0,56976.0
1767829430670,1767829430.6669688,580.0,116751.0,57000.0
1767829430670,1767829430.6669843,579.0,116695.0,56988.0
1767829430745,1767829430.7419064,579.0,116495.0,57003.0
1767829430745,1767829430.741922,578.0,116677.0,56946.0
1767829430745,1767829430.7419376,580.0,116793.0,57016.0
1767829430745,1767829430.7419531,579.0,116673.0,56982.0
1767829430745,1767829430.7419689,579.0,116683.0,56976.0
1767829430745,1767829430.7419844,579.0,116573.0,56972.0
1767829430834,1767829430.8319063,580.0,116745.0,56989.0
1767829430834,1767829430.8319218,579.0,116687.0,56976.0
1767829430834,1767829430.8319376,578.0,116696.0,56993.0
1767829430834,1767829430.831953,579.0,116651.0,56994.0
1767829430835,1767829430.8319688,577.0,116578.0,57005.0
1767829430835,1767829430.8319843,578.0,116657.0,57017.0
1767829430927,1767829430.9229064,580.0,116785.0,57020.0
1767829430927,1767829430.922922,579.0,116689.0,56997.0
1767829430927,1767829430.9229376,578.0,116757.0,57053.0
1767829430927,1767829430.9229531,579.0,116719.0,57010.0
1767829430927,1767829430.9229689,579.0,116683.0,57005.0
1767829430927,1767829430.9229844,578.0,116617.0,57007.0
1767829431029,1767829431.0269063,580.0,116715.0,57031.0
1767829431030,1767829431.0269217,578.0,116710.0,57024.0
1767829431030,1767829431.0269375,579.0,116784.0,57023.0
1767829431030,1767829431.026953,579.0,116712.0,57001.0
1767829431030,1767829431.0269687,577.0,116615.0,57041.0
1767829431030,1767829431.0269842,577.0,116737.0,57018.0
1767829431119,1767829431.1169064,577.0,116829.0,57026.0
1767829431119,1767829431.116922,577.0,116623.0,57024.0
1767829431119,1767829431.1169376,578.0,116780.0,57053.0
1767829431119,1767829431.1169531,579.0,116854.0,57031.0
1767829431119,1767829431.1169689,579.0,116835.0,57020.0
1767829431119,1767829431.1169844,578.0,116916.0,57068.0
1767829431210,1767829431.2079062,577.0,116792.0,57018.0
1767829431210,1767829431.2079217,577.0,116838.0,57047.0
1767829431210,1767829431.2079375,576.0,116779.0,57015.0
1767829431210,1767829431.207953,578.0,116748.0,57045.0
1767829431210,1767829431.2079687,576.0,116786.0,57000.0
1767829431210,1767829431.2079842,579.0,116802.0,57031.0
1767829431314,1767829431.2969062,578.0,116788.0,57022.0
1767829431314,1767829431.2969217,577.0,116640.0,57012.0
1767829431314,1767829431.2969375,577.0,116711.0,57011.0
1767829431314,1767829431.296953,577.0,116697.0,56987.0
1767829431314,1767829431.2969687,577.0,116736.0,57014.0
1767829431314,1767829431.2969842,579.0,116764.0,57000.0
1767829431403,1767829431.4019063,578.0,116656.0,57003.0
1767829431403,1767829431.4019217,579.0,116689.0,57003.0
1767829431403,1767829431.4019375,578.0,116640.0,56990.0
1767829431403,1767829431.401953,576.0,116612.0,57013.0
1767829431403,1767829431.4019687,577.0,116546.0,56978.0
1767829431403,1767829431.4019842,576.0,116679.0,57012.0
1767829431496,1767829431.4929063,575.0,116604.0,56990.0
1767829431496,1767829431.4929218,578.0,116623.0,56990.0
1767829431496,1767829431.4929376,577.0,116643.0,56972.0
1767829431496,1767829431.492953,578.0,116685.0,56992.0
1767829431496,1767829431.4929688,576.0,116683.0,56973.0
1767829431496,1767829431.4929843,576.0,116657.0,56988.0
1767829431584,1767829431.5819063,576.0,116743.0,57010.0
1767829431584,1767829431.5819218,577.0,116696.0,56989.0
1767829431584,1767829431.5819376,576.0,116674.0,56982.0
1767829431584,1767829431.581953,578.0,116665.0,57005.0
1767829431584,1767829431.5819688,576.0,116499.0,56997.0
1767829431584,1767829431.5819843,578.0,116642.0,56991.0
1767829431688,1767829431.6719062,578.0,116674.0,56960.0
1767829431688,1767829431.6719217,576.0,116685.0,57015.0
1767829431688,1767829431.6719375,576.0,116580.0,57012.0
1767829431688,1767829431.671953,577.0,116694.0,56991.0
1767829431688,1767829431.6719687,579.0,116591.0,56995.0
1767829431688,1767829431.6719842,577.0,116708.0,56998.0
1767829431783,1767829431.7769063,575.0,116675.0,57016.0
1767829431783,1767829431.7769217,578.0,116736.0,57027.0
1767829431783,1767829431.7769375,576.0,116624.0,57017.0
1767829431783,1767829431.776953,576.0,116676.0,56992.0
1767829431783,1767829431.7769687,576.0,116713.0,56982.0
1767829431783,1767829431.7769842,577.0,116691.0,57017.0
1767829431869,1767829431.8669064,578.0,116814.0,57058.0
1767829431869,1767829431.866922,576.0,116688.0,56993.0
1767829431869,1767829431.8669376,578.0,116780.0,57021.0
1767829431869,1767829431.8669531,576.0,116795.0,57030.0
1767829431869,1767829431.8669689,573.0,116628.0,57033.0
1767829431869,1767829431.8669844,576.0,116737.0,57054.0
1767829431963,1767829431.9569063,578.0,116793.0,57000.0
1767829431963,1767829431.9569218,577.0,116781.0,57011.0
1767829431963,1767829431.9569376,576.0,116715.0,57043.0
1767829431963,1767829431.956953,577.0,116811.0,57059.0
1767829431963,1767829431.9569688,576.0,116796.0,57031.0
1767829431963,1767829431.9569843,576.0,116770.0,57055.0
1767829432063,1767829432.0469062,576.0,116786.0,57042.0
1767829432063,1767829432.0469217,577.0,116786.0,57066.0
1767829432063,1767829432.0469375,576.0,116791.0,57049.0
1767829432063,1767829432.046953,576.0,116792.0,57036.0
1767829432063,1767829432.0469687,577.0,116829.0,57039.0
1767829432063,1767829432.0469842,575.0,116691.0,57026.0
1767829432154,1767829432.1519063,575.0,116769.0,57047.0
1767829432154,1767829432.1519217,576.0,116697.0,56981.0
1767829432154,1767829432.1519375,575.0,116777.0,57005.0
1767829432154,1767829432.151953,575.0,116713.0,56999.0
1767829432154,1767829432.1519687,576.0,116641.0,56976.0
1767829432154,1767829432.1519842,575.0,116783.0,57019.0
1767829432245,1767829432.2419064,575.0,116676.0,56998.0
1767829432245,1767829432.241922,574.0,116617.0,56974.0
1767829432245,1767829432.2419376,573.0,116576.0,57000.0
1767829432245,1767829432.2419531,576.0,116728.0,56977.0
1767829432245,1767829432.2419689,575.0,116699.0,56984.0
1767829432245,1767829432.2419844,577.0,116673.0,56971.0
1767829432349,1767829432.3319063,579.0,116755.0,56982.0
1767829432349,1767829432.3319218,577.0,116668.0,56966.0
1767829432349,1767829432.3319376,576.0,116743.0,56996.0
1767829432349,1767829432.331953,576.0,116567.0,56976.0
1767829432349,1767829432.3319688,578.0,116684.0,56999.0
1767829432349,1767829432.3319843,576.0,116550.0,57006.0
1767829432453,1767829432.4219062,577.0,116753.0,56995.0
1767829432453,1767829432.4219217,577.0,116748.0,57025.0
1767829432453,1767829432.4219375,577.0,116605.0,56991.0
1767829432453,1767829432.421953,575.0,116628.0,57006.0
1767829432453,1767829432.4219687,577.0,116723.0,56997.0
1767829432453,1767829432.4219842,576.0,116687.0,57006.0
1767829432542,1767829432.5269063,575.0,116640.0,56988.0
1767829432542,1767829432.5269217,575.0,116537.0,56956.0
1767829432542,1767829432.5269375,575.0,116701.0,56976.0
1767829432542,1767829432.526953,577.0,116701.0,56983.0
1767829432542,1767829432.5269687,578.0,116757.0,56974.0
1767829432542,1767829432.5269842,576.0,116684.0,56994.0
1767829432619,1767829432.6169064,576.0,116610.0,57001.0
1767829432619,1767829432.616922,575.0,116591.0,56988.0
1767829432619,1767829432.6169376,578.0,116719.0,56994.0
1767829432619,1767829432.6169531,576.0,116640.0,57012.0
1767829432619,1767829432.6169689,578.0,116735.0,56996.0
1767829432619,1767829432.6169844,577.0,116754.0,57024.0
1767829432712,1767829432.7069063,577.0,116769.0,56992.0
1767829432713,1767829432.7069218,576.0,116748.0,56985.0
1767829432713,1767829432.7069376,578.0,116822.0,57002.0
1767829432713,1767829432.706953,577.0,116728.0,57034.0
1767829432713,1767829432.7069688,578.0,116746.0,57021.0
1767829432713,1767829432.7069843,578.0,116745.0,57027.0
1767829432815,1767829432.8119063,578.0,116705.0,57015.0
1767829432815,1767829432.8119218,579.0,116828.0,57034.0
1767829432815,1767829432.8119376,576.0,116779.0,57033.0
1767829432815,1767829432.811953,576.0,116733.0,57031.0
1767829432815,1767829432.8119688,578.0,116890.0,57067.0
1767829432815,1767829432.8119843,577.0,116747.0,57059.0
1767829432905,1767829432.9019063,576.0,116720.0,57025.0
1767829432905,1767829432.9019217,578.0,116819.0,57046.0
1767829432905,1767829432.9019375,578.0,116805.0,57023.0
1767829432905,1767829432.901953,577.0,116742.0,57005.0
1767829432905,1767829432.9019687,578.0,116791.0,57019.0
1767829432905,1767829432.9019842,577.0,116713.0,57001.0
1767829432995,1767829432.9919064,578.0,116667.0,57024.0
1767829432995,1767829432.991922,576.0,116578.0,56999.0
1767829432995,1767829432.9919376,577.0,116714.0,56982.0
1767829432995,1767829432.9919531,579.0,116708.0,56992.0
1767829432995,1767829432.9919689,577.0,116709.0,56970.0
1767829432995,1767829432.9919844,578.0,116635.0,56947.0
1767829433084,1767829433.0819063,579.0,116740.0,56987.0
1767829433084,1767829433.0819218,577.0,116538.0,56993.0
1767829433084,1767829433.0819376,578.0,116642.0,57000.0
1767829433084,1767829433.081953,578.0,116664.0,56989.0
1767829433084,1767829433.0819688,578.0,116609.0,56993.0
1767829433084,1767829433.0819843,578.0,116617.0,56983.0
1767829433189,1767829433.1719062,579.0,116641.0,56979.0
1767829433189,1767829433.1719217,578.0,116624.0,56996.0
1767829433189,1767829433.1719375,576.0,116596.0,56974.0
1767829433189,1767829433.171953,576.0,116565.0,56958.0
1767829433189,1767829433.1719687,577.0,116656.0,56944.0
1767829433189,1767829433.1719842,578.0,116627.0,56981.0
1767829433281,1767829433.2769063,577.0,116688.0,56952.0
1767829433281,1767829433.2769217,578.0,116670.0,56983.0
1767829433281,1767829433.2769375,575.0,116633.0,56978.0
1767829433281,1767829433.276953,577.0,116569.0,56985.0
1767829433281,1767829433.2769687,576.0,116613.0,56960.0
1767829433281,1767829433.2769842,577.0,116570.0,56955.0
1767829433369,1767829433.3669064,577.0,116642.0,56980.0
1767829433369,1767829433.366922,578.0,116702.0,57006.0
1767829433369,1767829433.3669376,578.0,116584.0,56979.0
1767829433369,1767829433.3669531,577.0,116563.0,56985.0
1767829433369,1767829433.3669689,578.0,116677.0,56967.0
1767829433369,1767829433.3669844,578.0,116612.0,56979.0
1767829433459,1767829433.4569063,578.0,116666.0,56989.0
1767829433459,1767829433.4569218,577.0,116534.0,56996.0
1767829433459,1767829433.4569376,577.0,116692.0,57008.0
1767829433459,1767829433.456953,577.0,116675.0,56993.0
1767829433459,1767829433.4569688,577.0,116634.0,56984.0
1767829433459,1767829433.4569843,578.0,116745.0,57003.0
1767829433553,1767829433.5499063,578.0,116675.0,57009.0
1767829433553,1767829433.5499218,577.0,116634.0,56983.0
1767829433553,1767829433.5499375,577.0,116715.0,57032.0
1767829433553,1767829433.549953,579.0,116773.0,57007.0
1767829433553,1767829433.5499687,577.0,116604.0,57010.0
1767829433553,1767829433.5499842,580.0,116737.0,57005.0
1767829433654,1767829433.6519063,578.0,116753.0,57025.0
1767829433654,1767829433.6519217,578.0,116648.0,57002.0
1767829433654,1767829433.6519375,577.0,116829.0,57003.0
1767829433654,1767829433.651953,579.0,116720.0,56998.0
1767829433654,1767829433.6519687,575.0,116636.0,57000.0
1767829433654,1767829433.6519842,578.0,116658.0,57014.0
1767829433745,1767829433.7419064,577.0,116512.0,56991.0
1767829433745,1767829433.741922,579.0,116764.0,56958.0
1767829433745,1767829433.7419376,578.0,116690.0,56967.0
1767829433745,1767829433.7419531,577.0,116695.0,56966.0
1767829433745,1767829433.7419689,576.0,116624.0,56988.0
1767829433745,1767829433.7419844,576.0,116514.0,56980.0
1767829433848,1767829433.8329062,577.0,116592.0,56936.0
1767829433848,1767829433.8329217,578.0,116655.0,56948.0
1767829433848,1767829433.8329375,577.0,116601.0,56992.0
1767829433848,1767829433.832953,577.0,116556.0,56957.0
1767829433848,1767829433.8329687,577.0,116572.0,56956.0
1767829433848,1767829433.8329842,579.0,116660.0,56935.0
1767829433953,1767829433.9219062,576.0,116580.0,56949.0
1767829433953,1767829433.9219217,579.0,116603.0,56964.0
1767829433953,1767829433.9219375,577.0,116528.0,56954.0
1767829433953,1767829433.921953,578.0,116574.0,56917.0
1767829433953,1767829433.9219687,575.0,116573.0,56962.0
1767829433953,1767829433.9219842,577.0,116511.0,56931.0
1767829434030,1767829434.0269063,575.0,116535.0,56959.0
1767829434030,1767829434.0269217,577.0,116506.0,56922.0
1767829434030,1767829434.0269375,576.0,116570.0,56944.0
1767829434030,1767829434.026953,578.0,116503.0,56928.0
1767829434030,1767829434.0269687,576.0,116367.0,56945.0
1767829434030,1767829434.0269842,577.0,116643.0,56959.0
1767829434121,1767829434.1179063,577.0,116455.0,56976.0
1767829434121,1767829434.1179218,576.0,116451.0,56948.0
1767829434121,1767829434.1179376,575.0,116548.0,56933.0
1767829434121,1767829434.117953,576.0,116503.0,56946.0
1767829434121,1767829434.1179688,578.0,116591.0,56960.0
1767829434121,1767829434.1179843,579.0,116625.0,56959.0
1767829434209,1767829434.2069063,578.0,116654.0,56990.0
1767829434209,1767829434.2069218,577.0,116559.0,56943.0
1767829434209,1767829434.2069376,576.0,116519.0,56943.0
1767829434209,1767829434.206953,577.0,116655.0,56975.0
1767829434209,1767829434.2069688,575.0,116473.0,56998.0
1767829434209,1767829434.2069843,576.0,116649.0,56956.0
1767829434314,1767829434.2969062,576.0,116482.0,56946.0
1767829434314,1767829434.2969217,576.0,116691.0,56999.0
1767829434314,1767829434.2969375,576.0,116470.0,56957.0
1767829434314,1767829434.296953,577.0,116616.0,56954.0
1767829434314,1767829434.2969687,575.0,116584.0,56925.0
1767829434314,1767829434.2969842,574.0,116626.0,56987.0
1767829434404,1767829434.4019063,576.0,116667.0,56974.0
1767829434404,1767829434.4019217,576.0,116623.0,56962.0
1767829434404,1767829434.4019375,576.0,116735.0,56968.0
1767829434404,1767829434.401953,576.0,116672.0,56999.0
1767829434404,1767829434.4019687,573.0,116538.0,56982.0
1767829434404,1767829434.4019842,574.0,116642.0,56979.0
1767829434494,1767829434.4919064,577.0,116740.0,56985.0
1767829434494,1767829434.491922,579.0,116763.0,56999.0
1767829434494,1767829434.4919376,577.0,116734.0,56967.0
1767829434494,1767829434.4919531,576.0,116603.0,56996.0
1767829434494,1767829434.4919689,576.0,116496.0,56954.0
1767829434494,1767829434.4919844,575.0,116556.0,56957.0
1767829434585,1767829434.5819063,578.0,116701.0,56961.0
1767829434585,1767829434.5819218,577.0,116669.0,56927.0
1767829434585,1767829434.5819376,577.0,116581.0,56967.0
1767829434585,1767829434.581953,576.0,116656.0,56947.0
1767829434585,1767829434.5819688,577.0,116652.0,56949.0
1767829434585,1767829434.5819843,574.0,116566.0,56908.0
1767829434689,1767829434.6719062,578.0,116627.0,56938.0
1767829434689,1767829434.6719217,575.0,116513.0,56930.0
1767829434689,1767829434.6719375,574.0,116474.0,56928.0
1767829434689,1767829434.671953,574.0,116472.0,56910.0
1767829434689,1767829434.6719687,576.0,116565.0,56938.0
1767829434689,1767829434.6719842,576.0,116582.0,56938.0
1767829434780,1767829434.7769063,576.0,116517.0,56909.0
1767829434780,1767829434.7769217,577.0,116584.0,56938.0
1767829434780,1767829434.7769375,575.0,116498.0,56918.0
1767829434780,1767829434.776953,576.0,116513.0,56925.0
1767829434780,1767829434.7769687,575.0,116311.0,56923.0
1767829434780,1767829434.7769842,577.0,116491.0,56925.0
1767829434872,1767829434.8669064,576.0,116514.0,56905.0
1767829434872,1767829434.866922,576.0,116307.0,56946.0
1767829434872,1767829434.8669376,575.0,116467.0,56887.0
1767829434872,1767829434.8669531,577.0,116514.0,56909.0
1767829434872,1767829434.8669689,577.0,116538.0,56914.0
1767829434872,1767829434.8669844,576.0,116446.0,56895.0
1767829434975,1767829434.9719062,576.0,116532.0,56903.0
1767829434975,1767829434.9719217,576.0,116531.0,56900.0
1767829434975,1767829434.9719374,577.0,116443.0,56920.0
1767829434975,1767829434.971953,577.0,116605.0,56944.0
1767829434975,1767829434.9719687,576.0,116548.0,56928.0
1767829434975,1767829434.9719841,576.0,116579.0,56948.0
1767829435064,1767829435.0469062,574.0,116380.0,56946.0
1767829435064,1767829435.0469217,576.0,116589.0,56945.0
1767829435064,1767829435.0469375,576.0,116494.0,56923.0
1767829435064,1767829435.046953,575.0,116566.0,56964.0
1767829435064,1767829435.0469687,575.0,116579.0,56946.0
1767829435064,1767829435.0469842,575.0,116468.0,56944.0
1767829435153,1767829435.1519063,575.0,116591.0,56937.0
1767829435153,1767829435.1519217,577.0,116473.0,56944.0
1767829435153,1767829435.1519375,575.0,116530.0,56948.0
1767829435153,1767829435.151953,576.0,116639.0,56948.0
1767829435153,1767829435.1519687,577.0,116702.0,56964.0
1767829435153,1767829435.1519842,577.0,116694.0,56934.0
1767829435244,1767829435.2419064,576.0,116675.0,56969.0
1767829435244,1767829435.241922,576.0,116762.0,56990.0
1767829435244,1767829435.2419376,577.0,116674.0,56975.0
1767829435244,1767829435.2419531,575.0,116605.0,56952.0
1767829435244,1767829435.2419689,575.0,116644.0,56956.0
1767829435244,1767829435.2419844,575.0,116648.0,56990.0
1767829435334,1767829435.3319063,574.0,116551.0,56980.0
1767829435334,1767829435.3319218,574.0,116598.0,56978.0
1767829435334,1767829435.3319376,576.0,116764.0,56984.0
1767829435334,1767829435.331953,575.0,116697.0,56972.0
1767829435334,1767829435.3319688,576.0,116598.0,56970.0
1767829435334,1767829435.3319843,578.0,116705.0,56970.0
1767829435437,1767829435.4229064,576.0,116769.0,56971.0
1767829435437,1767829435.422922,575.0,116614.0,56954.0
1767829435437,1767829435.4229376,575.0,116552.0,56943.0
1767829435437,1767829435.4229531,577.0,116623.0,56963.0
1767829435437,1767829435.4229689,577.0,116678.0,56963.0
1767829435437,1767829435.4229844,577.0,116575.0,56936.0
1767829435529,1767829435.5269063,577.0,116589.0,56952.0
1767829435529,1767829435.5269217,578.0,116665.0,56937.0
1767829435529,1767829435.5269375,576.0,116602.0,56927.0
1767829435529,1767829435.526953,577.0,116533.0,56938.0
1767829435529,1767829435.5269687,575.0,116372.0,56916.0
1767829435529,1767829435.5269842,575.0,116498.0,56905.0
1767829435618,1767829435.6169064,577.0,116662.0,56931.0
1767829435618,1767829435.616922,577.0,116545.0,56918.0
1767829435618,1767829435.6169376,576.0,116556.0,56948.0
1767829435618,1767829435.6169531,575.0,116566.0,56935.0
1767829435618,1767829435.6169689,575.0,116600.0,56898.0
1767829435618,1767829435.6169844,577.0,116598.0,56952.0
1767829435710,1767829435.7079062,575.0,116353.0,56930.0
1767829435710,1767829435.7079217,576.0,116512.0,56918.0
1767829435710,1767829435.7079375,574.0,116383.0,56918.0
1767829435710,1767829435.707953,575.0,116489.0,56923.0
1767829435710,1767829435.7079687,574.0,116574.0,56915.0
1767829435710,1767829435.7079842,576.0,116518.0,56910.0
1767829435814,1767829435.7969062,574.0,116632.0,56958.0
1767829435814,1767829435.7969217,575.0,116495.0,56908.0
1767829435814,1767829435.7969375,574.0,116607.0,56937.0
1767829435814,1767829435.796953,577.0,116624.0,56912.0
1767829435814,1767829435.7969687,575.0,116571.0,56966.0
1767829435814,1767829435.7969842,576.0,116646.0,56937.0
1767829435903,1767829435.9019063,575.0,116551.0,56952.0
1767829435903,1767829435.9019217,577.0,116648.0,56933.0
1767829435903,1767829435.9019375,576.0,116607.0,56943.0
1767829435903,1767829435.901953,575.0,116570.0,56938.0
1767829435903,1767829435.9019687,575.0,116507.0,56927.0
